'East','North','Notes: road segment ID 87388, lane 2, lane segment ID 1432092674, distances from origin (42.5829000, -83.6811000) in meters'
748.447,94.214
749.174,94.144
749.900,94.073
750.627,93.998
751.352,93.922
752.077,93.843
752.801,93.761
753.526,93.677
754.250,93.591
754.973,93.502
755.695,93.410
756.417,93.316
757.139,93.219
757.861,93.120
758.581,93.019
759.302,92.915
760.021,92.808
760.741,92.699
761.460,92.587
762.179,92.474
762.897,92.357
763.614,92.238
764.332,92.117
765.048,91.993
765.764,91.866
766.480,91.738
767.195,91.606
767.910,91.472
768.625,91.335
769.338,91.197
770.051,91.056
770.765,90.912
771.477,90.766
772.190,90.618
772.901,90.467
773.613,90.313
774.324,90.157
775.034,89.999
775.745,89.838
776.454,89.674
777.164,89.508
777.872,89.339
778.581,89.168
779.289,88.993
779.996,88.817
780.703,88.637
781.410,88.455
782.116,88.270
782.821,88.083
783.528,87.892
784.233,87.699
784.937,87.505
785.641,87.308
786.343,87.109
787.044,86.908
787.745,86.705
788.444,86.500
789.142,86.294
789.839,86.084
790.535,85.873
791.231,85.658
791.925,85.443
792.618,85.224
793.311,85.004
794.003,84.780
794.693,84.555
795.383,84.327
796.072,84.096
796.760,83.862
797.448,83.626
798.135,83.388
798.820,83.146
799.506,82.902
800.191,82.655
800.875,82.406
801.557,82.153
802.238,81.898
802.919,81.641
803.598,81.382
804.275,81.120
804.953,80.855
805.629,80.587
806.305,80.317
806.979,80.045
807.652,79.770
808.325,79.492
808.997,79.212
809.669,78.928
810.339,78.643
811.009,78.355
811.678,78.065
812.346,77.772
813.014,77.476
813.681,77.178
814.348,76.876
815.013,76.574
815.677,76.268
816.339,75.962
817.000,75.652
817.660,75.341
818.318,75.027
818.975,74.712
819.630,74.394
820.285,74.074
820.939,73.752
821.591,73.427
822.242,73.100
822.891,72.771
823.540,72.440
824.187,72.106
824.834,71.770
825.479,71.432
826.124,71.091
826.767,70.749
827.410,70.403
828.050,70.056
828.690,69.706
829.328,69.355
829.965,69.002
830.599,68.645
831.233,68.287
831.865,67.927
832.496,67.565
833.125,67.200
833.753,66.833
834.380,66.463
835.005,66.092
835.629,65.718
836.252,65.342
836.873,64.963
837.494,64.582
838.113,64.199
838.730,63.813
839.347,63.425
839.962,63.033
840.576,62.640
841.189,62.245
841.799,61.847
842.408,61.447
843.016,61.045
843.621,60.641
844.225,60.235
844.827,59.826
845.427,59.415
846.026,59.003
846.624,58.587
847.220,58.170
847.814,57.750
848.407,57.329
848.999,56.905
849.589,56.479
850.178,56.050
850.766,55.620
851.353,55.187
851.938,54.752
852.522,54.315
853.105,53.875
853.686,53.434
854.266,52.990
854.845,52.545
855.421,52.099
855.996,51.651
856.569,51.200
857.140,50.749
857.709,50.295
858.277,49.840
858.843,49.383
859.408,48.924
859.971,48.462
860.531,48.000
861.091,47.535
861.649,47.068
862.205,46.599
862.760,46.129
863.313,45.656
863.865,45.181
864.414,44.704
864.962,44.225
865.510,43.744
866.055,43.260
866.599,42.775
867.141,42.288
867.680,41.799
868.218,41.308
868.754,40.816
869.288,40.322
869.819,39.825
870.349,39.326
870.878,38.827
871.404,38.325
871.929,37.821
872.452,37.315
872.974,36.807
873.493,36.297
874.011,35.786
874.527,35.273
875.043,34.757
875.556,34.240
876.068,33.720
876.578,33.199
877.087,32.675
877.594,32.150
878.100,31.623
878.603,31.095
879.103,30.565
879.602,30.034
880.098,29.501
880.592,28.966
881.084,28.429
881.573,27.891
882.061,27.351
882.546,26.810
883.028,26.266
883.509,25.721
883.988,25.174
884.464,24.625
884.939,24.074
885.411,23.521
885.881,22.966
886.349,22.410
886.815,21.851
887.279,21.290
887.741,20.726
888.201,20.161
888.660,19.594
889.116,19.026
889.570,18.456
890.021,17.885
890.470,17.313
890.918,16.739
891.363,16.163
891.806,15.587
892.246,15.009
892.685,14.429
893.122,13.847
893.557,13.264
893.990,12.679
894.420,12.093
894.850,11.505
895.276,10.915
895.701,10.324
896.124,9.731
896.545,9.136
896.965,8.539
897.382,7.941
897.798,7.341
898.211,6.739
898.622,6.137
899.031,5.534
899.437,4.928
899.841,4.323
900.242,3.715
900.641,3.107
901.038,2.497
901.432,1.886
901.824,1.274
902.214,0.660
902.601,0.045
902.986,-0.572
903.370,-1.190
903.750,-1.810
904.128,-2.431
904.505,-3.054
904.879,-3.678
905.250,-4.304
905.620,-4.932
905.987,-5.562
906.353,-6.193
906.716,-6.826
907.076,-7.459
907.435,-8.093
907.791,-8.730
908.144,-9.366
908.495,-10.004
908.844,-10.643
909.190,-11.283
909.534,-11.925
909.876,-12.567
910.215,-13.211
910.553,-13.856
910.887,-14.502
911.220,-15.150
911.551,-15.799
911.879,-16.450
912.205,-17.101
912.529,-17.754
912.850,-18.409
913.170,-19.065
913.487,-19.723
913.802,-20.381
914.114,-21.041
914.424,-21.701
914.732,-22.362
915.037,-23.025
915.339,-23.688
915.640,-24.351
915.938,-25.016
916.233,-25.681
916.527,-26.348
916.817,-27.015
917.106,-27.685
917.393,-28.354
917.677,-29.024
917.960,-29.696
918.240,-30.369
918.518,-31.042
918.793,-31.718
919.067,-32.394
919.339,-33.071
919.609,-33.749
919.876,-34.429
920.141,-35.108
920.404,-35.788
920.664,-36.469
920.921,-37.151
921.176,-37.833
921.427,-38.515
921.677,-39.200
921.924,-39.884
922.168,-40.569
922.409,-41.256
922.648,-41.943
922.884,-42.631
923.117,-43.320
923.348,-44.010
923.576,-44.701
923.802,-45.393
924.024,-46.086
924.244,-46.781
924.462,-47.476
924.676,-48.174
924.888,-48.872
925.097,-49.570
925.303,-50.271
925.507,-50.970
925.707,-51.671
925.904,-52.372
926.099,-53.074
926.290,-53.775
926.479,-54.478
926.664,-55.181
926.847,-55.885
927.027,-56.589
927.204,-57.294
927.378,-57.999
927.549,-58.706
927.718,-59.413
927.883,-60.121
928.046,-60.829
928.206,-61.538
928.363,-62.248
928.518,-62.959
928.670,-63.671
928.819,-64.384
928.966,-65.099
929.110,-65.814
929.252,-66.530
929.392,-67.245
929.529,-67.961
929.664,-68.676
929.797,-69.393
929.927,-70.109
930.055,-70.827
930.180,-71.544
930.303,-72.261
930.424,-72.980
930.542,-73.698
930.658,-74.417
930.771,-75.137
930.882,-75.857
930.990,-76.577
931.097,-77.299
931.201,-78.021
931.302,-78.744
931.401,-79.467
931.497,-80.191
931.591,-80.915
931.682,-81.639
931.770,-82.363
931.856,-83.087
931.939,-83.811
932.019,-84.535
932.096,-85.259
932.171,-85.983
932.242,-86.708
932.312,-87.432
932.378,-88.156
932.442,-88.880
932.502,-89.605
932.560,-90.329
932.616,-91.055
932.668,-91.780
932.718,-92.505
932.765,-93.230
932.810,-93.957
932.852,-94.684
932.891,-95.411
932.927,-96.139
932.962,-96.866
932.993,-97.594
933.023,-98.322
933.049,-99.050
933.074,-99.778
933.096,-100.506
933.115,-101.235
933.132,-101.963
933.146,-102.692
933.158,-103.421
933.167,-104.149
933.174,-104.878
933.178,-105.607
933.180,-106.336
933.179,-107.065
933.176,-107.793
933.170,-108.522
933.161,-109.250
933.150,-109.980
933.137,-110.708
933.120,-111.437
933.102,-112.165
933.080,-112.892
933.056,-113.620
933.030,-114.348
933.000,-115.076
932.968,-115.803
932.934,-116.530
932.896,-117.257
932.857,-117.985
932.814,-118.711
932.769,-119.438
932.722,-120.165
932.672,-120.891
932.619,-121.618
932.564,-122.344
932.506,-123.071
932.446,-123.797
932.383,-124.523
932.317,-125.249
932.249,-125.974
932.179,-126.700
932.106,-127.426
932.031,-128.151
931.952,-128.875
931.872,-129.599
931.788,-130.322
931.702,-131.044
931.614,-131.766
931.522,-132.488
931.428,-133.209
931.332,-133.929
931.232,-134.649
931.130,-135.368
931.025,-136.088
930.918,-136.807
930.808,-137.526
930.695,-138.245
930.579,-138.963
930.461,-139.681
930.340,-140.399
930.216,-141.117
930.090,-141.837
929.961,-142.555
929.829,-143.273
929.695,-143.990
929.559,-144.706
929.420,-145.421
929.279,-146.136
929.135,-146.850
928.990,-147.563
928.841,-148.276
928.690,-148.988
928.537,-149.699
928.381,-150.410
928.223,-151.120
928.061,-151.829
927.898,-152.538
927.732,-153.247
927.563,-153.955
927.392,-154.662
927.218,-155.370
927.042,-156.075
926.862,-156.782
926.680,-157.488
926.496,-158.194
926.309,-158.899
926.119,-159.603
925.926,-160.306
925.732,-161.008
925.534,-161.709
925.334,-162.409
925.132,-163.108
924.927,-163.808
924.720,-164.505
924.510,-165.202
924.297,-165.899
924.083,-166.595
923.865,-167.289
923.646,-167.984
923.423,-168.678
923.198,-169.370
922.970,-170.062
922.740,-170.754
922.508,-171.446
922.273,-172.137
922.035,-172.827
921.796,-173.518
921.553,-174.206
921.308,-174.894
921.061,-175.579
920.812,-176.264
920.559,-176.948
920.305,-177.631
920.049,-178.312
919.790,-178.993
919.528,-179.672
919.264,-180.350
918.998,-181.027
918.729,-181.704
918.457,-182.379
918.184,-183.054
917.907,-183.727
917.629,-184.400
917.348,-185.073
917.065,-185.743
916.779,-186.414
916.490,-187.084
916.199,-187.754
915.906,-188.422
915.611,-189.089
915.314,-189.755
915.015,-190.420
914.714,-191.084
914.411,-191.745
914.106,-192.407
913.798,-193.066
913.488,-193.725
913.176,-194.382
912.862,-195.039
912.545,-195.694
912.225,-196.348
911.904,-197.001
911.580,-197.653
911.253,-198.303
910.924,-198.953
910.592,-199.602
910.258,-200.249
909.921,-200.895
909.582,-201.540
909.239,-202.185
908.894,-202.828
908.547,-203.469
908.197,-204.109
907.845,-204.747
907.491,-205.383
907.134,-206.018
906.775,-206.651
906.413,-207.283
906.049,-207.913
905.683,-208.542
905.315,-209.170
904.945,-209.797
904.572,-210.422
904.197,-211.047
903.819,-211.669
903.440,-212.291
903.059,-212.912
902.674,-213.531
902.288,-214.150
901.901,-214.768
901.511,-215.385
901.119,-216.000
900.724,-216.615
900.329,-217.227
899.931,-217.838
899.532,-218.446
899.130,-219.054
898.727,-219.660
898.321,-220.263
897.913,-220.866
897.504,-221.467
897.092,-222.066
896.678,-222.663
896.261,-223.260
895.843,-223.855
895.422,-224.448
894.999,-225.040
894.573,-225.630
894.146,-226.220
893.715,-226.808
893.283,-227.394
892.847,-227.980
892.410,-228.565
891.970,-229.148
891.529,-229.730
891.086,-230.309
890.642,-230.887
890.195,-231.462
889.747,-232.038
889.297,-232.610
888.845,-233.181
888.391,-233.751
887.935,-234.319
887.478,-234.886
887.018,-235.451
886.556,-236.013
886.092,-236.575
885.627,-237.136
885.160,-237.693
884.690,-238.250
884.218,-238.806
883.745,-239.359
883.269,-239.911
882.791,-240.462
882.310,-241.012
881.828,-241.559
881.344,-242.105
880.857,-242.649
880.369,-243.190
879.879,-243.729
879.387,-244.266
878.893,-244.801
878.397,-245.334
877.899,-245.865
877.399,-246.394
876.897,-246.921
876.393,-247.446
875.887,-247.969
875.379,-248.491
874.869,-249.011
874.358,-249.529
873.845,-250.045
873.329,-250.561
872.812,-251.074
872.293,-251.586
871.771,-252.096
871.248,-252.605
870.724,-253.113
870.198,-253.618
869.670,-254.122
869.142,-254.623
868.612,-255.123
868.080,-255.620
867.547,-256.114
867.011,-256.607
866.474,-257.097
865.936,-257.585
865.396,-258.071
864.854,-258.555
864.310,-259.036
863.763,-259.515
863.215,-259.992
862.665,-260.467
862.112,-260.939
861.557,-261.409
861.000,-261.877
860.440,-262.344
859.877,-262.809
859.313,-263.272
858.747,-263.732
858.180,-264.191
857.612,-264.647
857.042,-265.101
856.471,-265.554
855.898,-266.004
855.325,-266.452
854.749,-266.899
854.173,-267.343
853.595,-267.785
853.015,-268.225
852.434,-268.664
851.852,-269.100
851.268,-269.535
850.682,-269.968
850.095,-270.399
849.507,-270.828
848.917,-271.256
848.326,-271.681
847.733,-272.106
847.139,-272.528
846.542,-272.949
845.945,-273.368
845.346,-273.785
844.747,-274.199
844.146,-274.612
843.543,-275.021
842.939,-275.428
842.333,-275.833
841.726,-276.235
841.117,-276.635
840.507,-277.031
839.896,-277.427
839.282,-277.820
838.667,-278.210
838.051,-278.598
837.433,-278.983
836.814,-279.367
836.193,-279.747
835.572,-280.127
834.948,-280.504
834.323,-280.878
833.697,-281.251
833.069,-281.621
832.441,-281.989
831.811,-282.354
831.180,-282.718
830.547,-283.079
829.914,-283.438
829.279,-283.793
828.643,-284.148
828.005,-284.499
827.366,-284.849
826.726,-285.196
826.084,-285.541
825.441,-285.883
824.797,-286.223
824.152,-286.561
823.504,-286.897
822.857,-287.230
822.207,-287.561
821.556,-287.889
820.904,-288.215
820.251,-288.539
819.596,-288.861
818.940,-289.180
