'East','North','Notes: road segment ID 87986, lane 2, lane segment ID 1471283202, distances from origin (42.5829000, -83.6811000) in meters'
-1161.114,-1230.705
-1161.834,-1230.855
-1162.553,-1231.005
-1163.274,-1231.152
-1163.995,-1231.297
-1164.716,-1231.441
-1165.437,-1231.583
-1166.158,-1231.724
-1166.881,-1231.862
-1167.603,-1231.999
-1168.325,-1232.134
-1169.048,-1232.268
-1169.771,-1232.399
-1170.494,-1232.529
-1171.217,-1232.657
-1171.942,-1232.783
-1172.666,-1232.907
-1173.391,-1233.030
-1174.116,-1233.151
-1174.841,-1233.269
-1175.567,-1233.386
-1176.293,-1233.501
-1177.020,-1233.615
-1177.746,-1233.727
-1178.474,-1233.837
-1179.201,-1233.946
-1179.930,-1234.054
-1180.657,-1234.159
-1181.386,-1234.264
-1182.115,-1234.367
-1182.845,-1234.469
-1183.574,-1234.570
-1184.305,-1234.669
-1185.036,-1234.767
-1185.766,-1234.865
-1186.498,-1234.959
-1187.230,-1235.051
-1187.963,-1235.140
-1188.696,-1235.226
-1189.428,-1235.309
-1190.161,-1235.389
-1190.895,-1235.465
-1191.628,-1235.538
-1192.363,-1235.608
-1193.097,-1235.674
-1193.831,-1235.738
-1194.566,-1235.798
-1195.301,-1235.855
-1196.036,-1235.909
-1196.771,-1235.959
-1197.506,-1236.005
-1198.242,-1236.049
-1198.978,-1236.088
-1199.713,-1236.124
-1200.450,-1236.156
-1201.186,-1236.184
-1201.924,-1236.208
-1202.661,-1236.230
-1203.398,-1236.247
-1204.135,-1236.261
-1204.872,-1236.272
-1205.610,-1236.280
-1206.348,-1236.285
-1207.085,-1236.286
-1207.822,-1236.285
-1208.560,-1236.280
-1209.297,-1236.273
-1210.034,-1236.263
-1210.771,-1236.251
-1211.508,-1236.236
-1212.245,-1236.219
-1212.982,-1236.199
-1213.719,-1236.177
-1214.456,-1236.153
-1215.192,-1236.128
-1215.929,-1236.099
-1216.666,-1236.069
-1217.402,-1236.037
-1218.139,-1236.003
-1218.875,-1235.966
-1219.611,-1235.926
-1220.347,-1235.884
-1221.083,-1235.839
-1221.818,-1235.791
-1222.554,-1235.741
-1223.290,-1235.688
-1224.025,-1235.631
-1224.760,-1235.574
-1225.495,-1235.512
-1226.230,-1235.448
-1226.965,-1235.382
-1227.701,-1235.312
-1228.436,-1235.239
-1229.171,-1235.164
-1229.905,-1235.086
-1230.640,-1235.005
-1231.375,-1234.921
-1232.110,-1234.835
-1232.844,-1234.746
-1233.577,-1234.655
-1234.309,-1234.561
-1235.041,-1234.464
-1235.772,-1234.365
-1236.503,-1234.263
-1237.233,-1234.159
-1237.963,-1234.053
-1238.692,-1233.943
-1239.421,-1233.831
-1240.149,-1233.716
-1240.876,-1233.599
-1241.604,-1233.479
-1242.331,-1233.356
-1243.058,-1233.231
-1243.784,-1233.103
-1244.510,-1232.972
-1245.236,-1232.839
-1245.962,-1232.702
-1246.687,-1232.563
-1247.412,-1232.422
-1248.135,-1232.278
-1248.858,-1232.132
-1249.580,-1231.984
-1250.302,-1231.833
-1251.023,-1231.682
-1251.743,-1231.527
-1252.463,-1231.371
-1253.182,-1231.212
-1253.901,-1231.052
-1254.620,-1230.889
-1255.337,-1230.724
-1256.055,-1230.557
-1256.772,-1230.388
-1257.488,-1230.217
-1258.204,-1230.044
-1258.920,-1229.868
-1259.636,-1229.692
-1260.350,-1229.512
-1261.065,-1229.330
-1261.780,-1229.147
-1262.495,-1228.961
-1263.208,-1228.773
-1263.922,-1228.583
-1264.633,-1228.391
-1265.345,-1228.196
-1266.055,-1227.999
-1266.765,-1227.800
-1267.474,-1227.599
-1268.183,-1227.395
-1268.891,-1227.189
-1269.599,-1226.981
-1270.306,-1226.771
-1271.012,-1226.558
-1271.719,-1226.344
-1272.424,-1226.127
-1273.130,-1225.907
-1273.835,-1225.685
-1274.539,-1225.461
-1275.243,-1225.235
-1275.945,-1225.006
-1276.647,-1224.773
-1277.346,-1224.538
-1278.046,-1224.301
-1278.743,-1224.061
-1279.441,-1223.818
-1280.136,-1223.571
-1280.831,-1223.323
-1281.525,-1223.071
-1282.217,-1222.817
-1282.909,-1222.560
-1283.599,-1222.300
-1284.289,-1222.037
-1284.978,-1221.772
-1285.665,-1221.503
-1286.352,-1221.232
-1287.038,-1220.957
-1287.722,-1220.680
-1288.406,-1220.400
-1289.089,-1220.117
-1289.772,-1219.832
-1290.453,-1219.544
-1291.133,-1219.255
-1291.812,-1218.964
-1292.490,-1218.670
-1293.166,-1218.375
-1293.841,-1218.077
-1294.515,-1217.778
-1295.188,-1217.475
-1295.860,-1217.171
-1296.530,-1216.865
-1297.200,-1216.556
-1297.868,-1216.245
-1298.535,-1215.931
-1299.202,-1215.616
-1299.867,-1215.297
-1300.531,-1214.977
-1301.194,-1214.654
-1301.856,-1214.329
-1302.518,-1214.001
-1303.178,-1213.671
-1303.837,-1213.338
-1304.495,-1213.004
-1305.151,-1212.667
-1305.806,-1212.329
-1306.461,-1211.988
-1307.114,-1211.646
-1307.766,-1211.302
-1308.416,-1210.955
-1309.065,-1210.606
-1309.713,-1210.254
-1310.361,-1209.901
-1311.006,-1209.545
-1311.651,-1209.188
-1312.295,-1208.827
-1312.937,-1208.465
-1313.579,-1208.099
-1314.219,-1207.732
-1314.859,-1207.362
-1315.497,-1206.990
-1316.134,-1206.615
-1316.769,-1206.239
-1317.402,-1205.860
-1318.034,-1205.479
-1318.665,-1205.095
-1319.293,-1204.710
-1319.921,-1204.323
-1320.547,-1203.934
-1321.171,-1203.543
-1321.794,-1203.149
-1322.416,-1202.753
-1323.036,-1202.354
-1323.655,-1201.954
-1324.273,-1201.552
-1324.889,-1201.147
-1325.504,-1200.741
-1326.118,-1200.331
-1326.730,-1199.920
-1327.341,-1199.506
-1327.951,-1199.091
-1328.560,-1198.673
-1329.167,-1198.253
-1329.773,-1197.831
-1330.377,-1197.406
-1330.979,-1196.980
-1331.580,-1196.551
-1332.179,-1196.122
-1332.775,-1195.689
-1333.371,-1195.255
-1333.965,-1194.819
-1334.557,-1194.381
-1335.148,-1193.941
-1335.737,-1193.498
-1336.325,-1193.054
-1336.911,-1192.607
-1337.496,-1192.159
-1338.080,-1191.709
-1338.662,-1191.256
-1339.243,-1190.802
-1339.822,-1190.345
-1340.401,-1189.886
-1340.978,-1189.426
-1341.553,-1188.963
-1342.127,-1188.499
-1342.699,-1188.033
-1343.269,-1187.566
-1343.837,-1187.096
-1344.404,-1186.625
-1344.969,-1186.152
-1345.532,-1185.677
-1346.093,-1185.199
-1346.653,-1184.720
-1347.210,-1184.239
-1347.767,-1183.755
-1348.321,-1183.270
-1348.874,-1182.782
-1349.425,-1182.292
-1349.973,-1181.799
-1350.521,-1181.304
-1351.066,-1180.807
-1351.610,-1180.308
-1352.151,-1179.806
-1352.691,-1179.303
-1353.229,-1178.798
-1353.764,-1178.291
-1354.297,-1177.782
-1354.828,-1177.272
-1355.357,-1176.759
-1355.884,-1176.245
-1356.410,-1175.730
-1356.933,-1175.212
-1357.455,-1174.693
-1357.975,-1174.172
-1358.494,-1173.649
-1359.010,-1173.126
-1359.526,-1172.599
-1360.039,-1172.072
-1360.552,-1171.543
-1361.062,-1171.013
-1361.572,-1170.480
-1362.080,-1169.946
-1362.587,-1169.411
-1363.093,-1168.875
-1363.597,-1168.337
-1364.100,-1167.798
-1364.600,-1167.258
-1365.100,-1166.717
-1365.598,-1166.174
-1366.094,-1165.630
-1366.589,-1165.084
-1367.082,-1164.538
-1367.573,-1163.990
-1368.063,-1163.441
-1368.551,-1162.890
-1369.038,-1162.337
-1369.523,-1161.783
-1370.006,-1161.228
-1370.488,-1160.671
-1370.968,-1160.112
-1371.446,-1159.551
-1371.923,-1158.989
-1372.398,-1158.426
-1372.872,-1157.859
-1373.344,-1157.291
-1373.813,-1156.722
-1374.279,-1156.150
-1374.743,-1155.577
-1375.205,-1155.002
-1375.664,-1154.426
-1376.121,-1153.848
-1376.575,-1153.268
-1377.027,-1152.687
-1377.477,-1152.104
-1377.924,-1151.519
-1378.370,-1150.933
-1378.813,-1150.345
-1379.255,-1149.755
-1379.694,-1149.165
-1380.132,-1148.572
-1380.568,-1147.977
-1381.002,-1147.382
-1381.434,-1146.785
-1381.865,-1146.186
-1382.295,-1145.586
-1382.722,-1144.984
-1383.148,-1144.383
-1383.571,-1143.779
-1383.992,-1143.175
-1384.411,-1142.568
-1384.827,-1141.960
-1385.240,-1141.351
-1385.651,-1140.739
-1386.059,-1140.126
-1386.464,-1139.512
-1386.867,-1138.897
-1387.267,-1138.279
-1387.666,-1137.659
-1388.060,-1137.038
-1388.454,-1136.415
-1388.844,-1135.791
-1389.231,-1135.165
-1389.617,-1134.537
-1390.000,-1133.908
-1390.380,-1133.276
-1390.758,-1132.644
-1391.134,-1132.009
-1391.508,-1131.373
-1391.880,-1130.736
-1392.249,-1130.098
-1392.616,-1129.459
-1392.981,-1128.819
-1393.344,-1128.178
-1393.704,-1127.536
-1394.063,-1126.894
-1394.419,-1126.249
-1394.773,-1125.604
-1395.125,-1124.958
-1395.475,-1124.312
-1395.823,-1123.663
-1396.170,-1123.014
-1396.514,-1122.364
-1396.857,-1121.712
-1397.197,-1121.059
-1397.537,-1120.406
-1397.874,-1119.751
-1398.210,-1119.095
-1398.544,-1118.438
-1398.876,-1117.780
-1399.207,-1117.122
-1399.535,-1116.463
-1399.862,-1115.803
-1400.186,-1115.143
-1400.509,-1114.481
-1400.829,-1113.819
-1401.147,-1113.156
-1401.464,-1112.491
-1401.778,-1111.826
-1402.090,-1111.160
-1402.400,-1110.493
-1402.707,-1109.825
-1403.012,-1109.156
-1403.316,-1108.485
-1403.617,-1107.814
-1403.916,-1107.141
-1404.212,-1106.466
-1404.506,-1105.791
-1404.798,-1105.113
-1405.087,-1104.435
-1405.372,-1103.754
-1405.655,-1103.073
-1405.934,-1102.391
-1406.210,-1101.707
-1406.482,-1101.022
-1406.751,-1100.337
-1407.018,-1099.650
-1407.281,-1098.962
-1407.542,-1098.274
-1407.799,-1097.584
-1408.053,-1096.894
-1408.305,-1096.202
-1408.554,-1095.509
-1408.800,-1094.816
-1409.043,-1094.122
-1409.284,-1093.428
-1409.522,-1092.732
-1409.758,-1092.035
-1409.991,-1091.338
-1410.221,-1090.639
-1410.450,-1089.941
-1410.676,-1089.241
-1410.899,-1088.540
-1411.120,-1087.838
-1411.338,-1087.136
-1411.553,-1086.433
-1411.766,-1085.729
-1411.976,-1085.024
-1412.183,-1084.318
-1412.387,-1083.612
-1412.589,-1082.905
-1412.789,-1082.197
-1412.985,-1081.487
-1413.179,-1080.778
-1413.370,-1080.067
-1413.558,-1079.356
-1413.744,-1078.644
-1413.927,-1077.931
-1414.108,-1077.217
-1414.285,-1076.503
