'East','North','Notes: road segment ID 3537, lane 4, lane segment ID 231800836, distances from lane segment origin in meters'
1.199,-8.892
1.927,-8.803
2.656,-8.720
3.376,-8.625
4.104,-8.536
4.833,-8.447
5.557,-8.353
6.285,-8.264
7.010,-8.169
7.734,-8.081
8.462,-7.992
9.191,-7.897
9.915,-7.808
10.639,-7.714
11.364,-7.619
12.092,-7.525
12.820,-7.436
13.545,-7.341
14.269,-7.252
14.993,-7.152
15.713,-7.064
16.438,-6.969
17.162,-6.880
17.882,-6.780
18.606,-6.691
19.331,-6.591
20.055,-6.502
20.783,-6.402
21.512,-6.308
22.240,-6.213
22.969,-6.119
23.697,-6.019
24.425,-5.924
25.162,-5.830
25.890,-5.730
26.627,-5.635
27.359,-5.541
28.096,-5.441
28.832,-5.341
29.569,-5.246
30.297,-5.152
31.034,-5.057
31.762,-4.957
32.491,-4.868
33.219,-4.768
33.956,-4.674
34.684,-4.579
35.412,-4.485
36.141,-4.390
36.869,-4.290
37.598,-4.196
38.326,-4.107
39.054,-4.007
39.783,-3.912
40.507,-3.812
41.235,-3.724
41.964,-3.623
42.692,-3.529
43.421,-3.440
44.141,-3.340
44.869,-3.251
45.598,-3.151
46.326,-3.051
47.054,-2.957
47.783,-2.857
48.511,-2.762
49.239,-2.662
49.968,-2.568
50.700,-2.468
51.429,-2.367
52.157,-2.267
52.885,-2.173
53.614,-2.073
54.342,-1.973
55.071,-1.873
55.799,-1.778
56.527,-1.678
57.256,-1.584
57.988,-1.484
58.717,-1.389
59.445,-1.289
60.173,-1.200
60.902,-1.100
61.630,-1.006
62.359,-0.911
63.087,-0.811
63.819,-0.722
64.548,-0.628
65.276,-0.528
66.005,-0.439
66.737,-0.339
67.465,-0.245
68.194,-0.150
68.926,-0.056
69.655,0.033
70.383,0.133
71.111,0.228
71.844,0.322
72.572,0.417
73.305,0.517
74.033,0.611
74.766,0.706
75.498,0.806
76.231,0.900
76.967,1.000
77.695,1.095
78.428,1.195
79.160,1.289
79.889,1.389
80.621,1.484
81.354,1.578
82.082,1.678
82.811,1.778
83.543,1.867
84.271,1.967
85.000,2.067
85.728,2.167
86.457,2.256
87.185,2.356
87.913,2.456
88.642,2.545
89.370,2.645
90.098,2.745
90.827,2.840
91.555,2.940
92.288,3.029
93.016,3.129
93.744,3.223
94.473,3.323
95.201,3.418
95.930,3.518
96.658,3.607
97.395,3.707
98.123,3.801
98.851,3.896
99.580,3.996
100.308,4.096
101.041,4.190
101.773,4.290
102.501,4.379
103.230,4.479
103.958,4.579
104.695,4.679
105.423,4.774
106.152,4.868
106.884,4.968
107.616,5.068
108.345,5.163
109.073,5.263
109.806,5.363
110.534,5.469
111.262,5.563
111.991,5.663
112.727,5.763
113.456,5.858
114.184,5.958
114.913,6.058
115.641,6.152
116.369,6.252
117.098,6.358
117.830,6.452
118.559,6.547
119.287,6.647
120.015,6.747
120.748,6.847
121.480,6.947
122.209,7.047
122.937,7.136
123.665,7.236
124.394,7.336
125.122,7.430
125.855,7.530
126.587,7.625
127.316,7.725
128.044,7.819
128.772,7.919
129.497,8.019
130.225,8.114
130.953,8.214
131.678,8.308
132.406,8.408
133.134,8.508
133.863,8.609
134.587,8.709
135.315,8.809
136.044,8.909
136.772,9.009
137.497,9.109
138.225,9.209
138.949,9.303
139.678,9.409
140.402,9.509
141.130,9.609
141.855,9.709
142.583,9.814
143.307,9.915
144.031,10.015
144.760,10.115
145.484,10.215
146.208,10.315
146.937,10.415
147.657,10.509
148.385,10.609
149.106,10.709
149.826,10.809
150.550,10.904
151.270,11.004
151.999,11.104
152.719,11.204
153.447,11.298
154.176,11.398
154.900,11.493
155.624,11.587
156.353,11.687
157.081,11.787
157.813,11.887
158.546,11.982
159.274,12.082
160.007,12.182
160.739,12.282
161.472,12.376
162.208,12.471
162.941,12.571
163.673,12.671
164.402,12.771
165.130,12.871
165.858,12.971
166.587,13.060
167.315,13.160
168.044,13.260
168.772,13.360
169.504,13.460
170.237,13.555
170.965,13.655
171.694,13.755
172.422,13.855
173.155,13.949
173.887,14.044
174.615,14.144
175.348,14.244
176.076,14.344
176.809,14.438
177.541,14.538
178.270,14.633
179.006,14.733
179.735,14.827
180.463,14.927
181.199,15.022
181.928,15.122
182.656,15.216
183.389,15.311
184.121,15.411
184.850,15.500
185.578,15.600
186.306,15.700
187.035,15.789
187.763,15.889
188.487,15.983
189.212,16.078
189.940,16.178
190.668,16.272
191.393,16.367
192.117,16.467
192.845,16.561
193.574,16.661
194.302,16.756
195.031,16.850
195.759,16.950
196.487,17.050
197.216,17.150
197.944,17.245
198.672,17.339
199.401,17.439
200.129,17.539
200.858,17.639
201.586,17.734
202.314,17.828
203.043,17.928
203.771,18.028
204.500,18.128
205.228,18.217
205.956,18.317
206.685,18.417
207.417,18.517
208.150,18.606
208.878,18.706
209.606,18.801
210.335,18.895
211.063,18.995
211.796,19.090
212.524,19.190
213.256,19.279
213.985,19.379
214.713,19.473
215.442,19.568
216.166,19.668
216.894,19.762
217.623,19.857
218.351,19.951
219.079,20.051
219.804,20.146
220.532,20.240
221.256,20.340
221.985,20.429
222.713,20.529
223.442,20.624
224.166,20.718
224.894,20.813
225.619,20.913
226.347,21.013
227.075,21.102
227.804,21.202
228.532,21.296
229.260,21.396
229.989,21.491
230.717,21.585
231.450,21.685
232.178,21.780
232.906,21.874
233.635,21.969
234.363,22.069
235.092,22.163
235.824,22.258
236.552,22.358
237.285,22.452
238.013,22.547
238.742,22.647
239.470,22.741
240.198,22.836
240.927,22.930
241.655,23.025
242.384,23.119
243.116,23.214
243.844,23.308
244.573,23.403
245.301,23.497
246.034,23.591
246.762,23.686
247.490,23.780
248.219,23.875
248.947,23.964
249.676,24.064
250.408,24.158
251.136,24.253
251.865,24.347
252.593,24.442
253.322,24.542
254.050,24.636
254.778,24.736
255.511,24.825
256.239,24.925
256.968,25.025
257.696,25.114
258.424,25.214
259.153,25.309
259.881,25.409
260.610,25.509
261.342,25.598
262.070,25.698
262.799,25.798
263.531,25.892
264.260,25.987
264.988,26.087
265.716,26.181
266.445,26.276
267.181,26.376
267.918,26.476
268.659,26.570
269.395,26.670
270.128,26.765
270.864,26.865
271.601,26.965
272.329,27.059
273.066,27.154
273.794,27.254
274.527,27.354
275.255,27.448
275.983,27.548
276.712,27.648
277.440,27.737
278.164,27.837
278.893,27.932
279.613,28.032
280.341,28.126
281.062,28.221
281.782,28.321
282.510,28.410
283.243,28.510
283.971,28.610
284.699,28.704
285.428,28.799
286.156,28.893
286.884,28.993
287.613,29.082
288.341,29.182
289.070,29.277
289.798,29.371
290.526,29.466
291.255,29.566
291.983,29.660
292.703,29.755
293.432,29.855
294.160,29.944
294.888,30.044
295.613,30.144
296.337,30.233
297.065,30.333
297.794,30.433
298.522,30.527
299.251,30.627
299.979,30.722
300.707,30.816
301.436,30.916
302.164,31.016
302.893,31.111
303.625,31.205
304.353,31.305
305.082,31.405
305.810,31.500
306.539,31.594
307.267,31.694
307.995,31.794
308.724,31.889
309.452,31.983
310.185,32.083
310.913,32.183
311.641,32.278
312.370,32.372
313.098,32.472
313.826,32.572
314.559,32.667
315.287,32.761
316.016,32.861
316.744,32.956
317.472,33.056
318.201,33.156
318.929,33.245
319.658,33.345
320.386,33.445
321.114,33.539
321.843,33.634
322.571,33.734
323.299,33.834
324.028,33.928
324.760,34.023
325.489,34.123
326.217,34.223
326.946,34.317
327.674,34.412
328.402,34.512
329.131,34.612
329.859,34.712
330.587,34.801
331.316,34.901
332.044,35.001
332.773,35.101
333.501,35.201
334.229,35.295
334.958,35.390
335.686,35.490
336.414,35.590
337.143,35.685
337.867,35.785
338.596,35.885
339.324,35.979
340.052,36.079
340.781,36.174
341.505,36.274
342.225,36.374
342.949,36.463
343.670,36.563
344.394,36.663
345.114,36.763
345.843,36.852
346.563,36.952
347.291,37.052
348.020,37.152
348.748,37.246
349.476,37.341
350.205,37.441
350.933,37.541
351.661,37.641
352.390,37.741
353.126,37.835
353.855,37.930
354.591,38.030
355.324,38.130
356.056,38.230
356.785,38.330
357.513,38.430
358.241,38.524
358.970,38.624
359.698,38.719
360.431,38.819
361.159,38.919
361.887,39.019
362.616,39.119
363.348,39.219
364.081,39.319
364.809,39.419
365.538,39.519
366.270,39.619
367.002,39.719
367.731,39.819
368.467,39.919
369.196,40.019
369.928,40.119
370.661,40.219
371.393,40.308
372.122,40.408
372.850,40.508
373.578,40.608
374.311,40.703
375.039,40.803
375.772,40.897
376.500,40.997
377.228,41.092
377.957,41.192
378.685,41.292
379.414,41.381
380.142,41.481
380.870,41.581
381.599,41.675
382.327,41.775
383.056,41.870
383.784,41.964
384.512,42.064
385.241,42.165
385.969,42.253
386.697,42.353
387.426,42.454
388.154,42.548
388.883,42.642
389.611,42.742
390.339,42.837
391.068,42.937
391.796,43.031
392.524,43.126
393.253,43.226
393.981,43.315
394.710,43.415
395.438,43.515
396.166,43.609
396.895,43.704
397.627,43.804
398.356,43.898
399.088,43.993
399.816,44.093
400.545,44.182
401.273,44.282
402.002,44.382
402.730,44.471
403.458,44.571
404.187,44.665
404.915,44.760
405.644,44.860
406.372,44.954
407.100,45.054
407.829,45.143
408.557,45.243
409.290,45.338
410.018,45.432
410.746,45.532
411.479,45.627
412.207,45.727
412.936,45.821
413.664,45.916
414.392,46.016
415.121,46.110
415.845,46.210
416.573,46.299
417.298,46.399
418.022,46.494
418.750,46.594
419.479,46.688
420.207,46.783
420.931,46.883
421.660,46.977
422.388,47.077
423.117,47.166
423.845,47.266
424.573,47.366
425.302,47.461
426.030,47.561
426.763,47.655
427.491,47.750
428.223,47.850
428.952,47.944
429.684,48.044
430.413,48.144
431.141,48.239
431.874,48.333
432.602,48.433
433.330,48.528
434.063,48.628
434.791,48.728
435.520,48.828
436.248,48.922
436.976,49.022
437.709,49.122
438.437,49.223
439.166,49.323
439.898,49.417
440.626,49.517
441.355,49.617
442.083,49.717
442.812,49.817
443.540,49.917
444.268,50.006
445.005,50.106
445.737,50.206
446.474,50.306
447.206,50.406
447.939,50.506
448.675,50.606
449.404,50.706
450.132,50.801
450.865,50.901
451.593,51.001
452.321,51.101
453.050,51.201
453.778,51.295
454.502,51.395
455.231,51.496
455.951,51.590
456.679,51.684
457.400,51.785
458.120,51.885
458.844,51.979
459.564,52.079
460.293,52.168
461.021,52.268
461.745,52.368
462.474,52.463
463.202,52.563
463.931,52.651
464.659,52.751
465.387,52.852
466.116,52.940
466.844,53.040
467.572,53.135
468.301,53.229
469.029,53.324
469.758,53.418
470.486,53.513
471.218,53.613
471.947,53.702
472.675,53.802
473.404,53.896
474.132,53.991
474.860,54.085
475.589,54.180
476.317,54.274
477.046,54.374
477.774,54.463
478.502,54.563
