'East','North','Notes: road segment ID 3646, lane 2, lane segment ID 238944258, distances from origin (42.5829000, -83.6811000) in meters'
-447.122,-60.689
-446.394,-60.591
-445.665,-60.493
-444.937,-60.395
-444.209,-60.297
-443.480,-60.200
-442.752,-60.101
-442.024,-60.003
-441.295,-59.905
-440.567,-59.806
-439.838,-59.708
-439.110,-59.610
-438.381,-59.512
-437.653,-59.413
-436.925,-59.314
-436.196,-59.216
-435.468,-59.118
-434.740,-59.019
-434.011,-58.920
-433.283,-58.821
-432.555,-58.723
-431.827,-58.624
-431.098,-58.525
-430.370,-58.426
-429.642,-58.327
-428.913,-58.227
-428.185,-58.128
-427.457,-58.028
-426.729,-57.929
-426.000,-57.829
-425.272,-57.730
-424.544,-57.630
-423.815,-57.531
-423.086,-57.432
-422.358,-57.333
-421.630,-57.234
-420.901,-57.135
-420.173,-57.036
-419.443,-56.937
-418.715,-56.839
-417.986,-56.741
-417.257,-56.643
-416.529,-56.545
-415.800,-56.447
-415.072,-56.349
-414.342,-56.250
-413.614,-56.152
-412.886,-56.054
-412.157,-55.956
-411.428,-55.858
-410.700,-55.760
-409.971,-55.661
-409.243,-55.564
-408.514,-55.465
-407.786,-55.367
-407.058,-55.270
-406.329,-55.172
-405.601,-55.073
-404.872,-54.976
-404.144,-54.878
-403.416,-54.780
-402.687,-54.683
-401.959,-54.584
-401.230,-54.487
-400.502,-54.389
-399.773,-54.292
-399.045,-54.194
-398.316,-54.097
-397.587,-53.999
-396.859,-53.901
-396.130,-53.804
-395.402,-53.707
-394.673,-53.610
-393.945,-53.512
-393.216,-53.415
-392.487,-53.317
-391.758,-53.219
-391.030,-53.122
-390.301,-53.025
-389.573,-52.928
-388.844,-52.830
-388.115,-52.733
-387.386,-52.635
-386.658,-52.539
-385.929,-52.442
-385.200,-52.345
-384.471,-52.249
-383.742,-52.153
-383.014,-52.057
-382.285,-51.961
-381.556,-51.865
-380.827,-51.769
-380.098,-51.673
-379.369,-51.577
-378.640,-51.482
-377.911,-51.385
-377.182,-51.290
-376.454,-51.194
-375.725,-51.098
-374.996,-51.001
-374.267,-50.905
-373.538,-50.809
-372.809,-50.713
-372.081,-50.616
-371.351,-50.520
-370.622,-50.423
-369.894,-50.327
-369.165,-50.231
-368.436,-50.134
-367.707,-50.038
-366.978,-49.942
-366.250,-49.845
-365.521,-49.749
-364.792,-49.653
-364.063,-49.557
-363.334,-49.460
-362.605,-49.364
-361.876,-49.268
-361.148,-49.171
-360.419,-49.075
-359.690,-48.979
-358.961,-48.882
-358.233,-48.786
-357.504,-48.690
-356.775,-48.593
-356.046,-48.497
-355.318,-48.401
-354.589,-48.304
-353.860,-48.208
-353.132,-48.112
-352.402,-48.015
-351.674,-47.919
-350.945,-47.824
-350.216,-47.727
-349.487,-47.631
-348.759,-47.535
-348.030,-47.439
-347.301,-47.343
-346.572,-47.247
-345.843,-47.151
-345.114,-47.055
-344.385,-46.958
-343.657,-46.863
-342.929,-46.767
-342.201,-46.671
-341.472,-46.577
-340.744,-46.481
-340.015,-46.386
-339.286,-46.291
-338.557,-46.196
-337.828,-46.101
-337.100,-46.007
-336.370,-45.912
-335.641,-45.818
-334.911,-45.723
-334.182,-45.628
-333.453,-45.533
-332.723,-45.438
-331.993,-45.343
-331.264,-45.247
-330.534,-45.152
-329.804,-45.056
-329.074,-44.960
-328.345,-44.863
-327.615,-44.767
-326.885,-44.671
-326.156,-44.574
-325.427,-44.478
-324.698,-44.381
-323.969,-44.284
-323.240,-44.186
-322.511,-44.090
-321.782,-43.992
-321.053,-43.895
-320.325,-43.797
-319.596,-43.701
-318.868,-43.603
-318.140,-43.505
-317.411,-43.407
-316.683,-43.309
-315.955,-43.212
-315.227,-43.113
-314.499,-43.015
-313.771,-42.917
-313.042,-42.818
-312.314,-42.720
-311.586,-42.621
