'East','North','Notes: road segment ID 43516, lane 4, lane segment ID 2851864580, distances from lane segment origin in meters'
-3.188,9.920
-3.880,9.681
-4.576,9.453
-5.271,9.220
-5.967,8.992
-6.663,8.753
-7.355,8.525
-8.050,8.292
-8.746,8.064
-9.442,7.830
-10.138,7.597
-10.833,7.369
-11.529,7.141
-12.225,6.908
-12.929,6.675
-13.625,6.447
-14.324,6.213
-15.028,5.980
-15.728,5.752
-16.432,5.519
-17.136,5.291
-17.840,5.057
-18.544,4.829
-19.244,4.596
-19.948,4.368
-20.652,4.135
