'East','North','Notes: road segment ID 46613, lane 3, lane segment ID 3054829571, distances from origin (42.5829000, -83.6811000) in meters'
-207.791,-32.377
-207.061,-32.276
-206.331,-32.174
-205.601,-32.074
-204.871,-31.973
-204.141,-31.873
-203.411,-31.773
-202.680,-31.673
-201.950,-31.573
-201.220,-31.474
-200.490,-31.374
-199.759,-31.275
-199.029,-31.176
-198.299,-31.078
-197.568,-30.980
-196.838,-30.881
-196.108,-30.783
-195.378,-30.686
-194.647,-30.588
-193.915,-30.490
-193.181,-30.393
-192.447,-30.295
-191.714,-30.199
-190.981,-30.103
-190.249,-30.008
-189.517,-29.912
-188.786,-29.817
-188.056,-29.722
-187.326,-29.627
-186.597,-29.534
-185.869,-29.440
-185.141,-29.346
-184.414,-29.252
-183.688,-29.158
-182.962,-29.064
-182.237,-28.971
-181.512,-28.877
-180.789,-28.783
-180.066,-28.689
-179.344,-28.594
-178.623,-28.500
-177.902,-28.406
-177.180,-28.313
-176.457,-28.220
-175.733,-28.126
-175.008,-28.034
-174.283,-27.941
-173.556,-27.850
-172.828,-27.757
-172.099,-27.665
-171.369,-27.573
-170.638,-27.480
-169.906,-27.387
-169.174,-27.294
-168.441,-27.200
-167.706,-27.107
-166.971,-27.013
-166.235,-26.918
-165.498,-26.822
-164.760,-26.725
-164.025,-26.629
-163.295,-26.533
-162.565,-26.436
-161.836,-26.340
-161.106,-26.242
-160.377,-26.146
-159.647,-26.048
-158.918,-25.951
-158.189,-25.854
-157.460,-25.757
-156.732,-25.659
-156.003,-25.561
-155.275,-25.463
-154.547,-25.365
-153.818,-25.268
-153.090,-25.169
-152.363,-25.071
-151.635,-24.973
-150.907,-24.874
-150.180,-24.776
-149.453,-24.677
-148.726,-24.580
-147.998,-24.480
-147.270,-24.380
-146.542,-24.279
-145.815,-24.178
-145.087,-24.077
-144.359,-23.975
-143.631,-23.873
-142.903,-23.771
-142.175,-23.669
-141.446,-23.566
-140.718,-23.465
-139.990,-23.362
-139.261,-23.261
-138.532,-23.161
-137.804,-23.060
-137.074,-22.960
-136.345,-22.860
-135.616,-22.761
-134.886,-22.663
-134.154,-22.566
-133.421,-22.469
-132.689,-22.373
-131.957,-22.277
-131.225,-22.182
-130.494,-22.087
-129.763,-21.993
-129.032,-21.899
-128.302,-21.804
-127.572,-21.711
-126.843,-21.617
-126.113,-21.524
-125.384,-21.430
-124.656,-21.337
-123.928,-21.243
-123.201,-21.149
-122.473,-21.054
-121.747,-20.961
-121.020,-20.866
-120.294,-20.771
-119.568,-20.676
-118.841,-20.579
-118.114,-20.482
-117.387,-20.385
-116.661,-20.286
-115.934,-20.188
-115.207,-20.089
-114.480,-19.990
-113.754,-19.890
-113.027,-19.790
-112.301,-19.690
-111.574,-19.590
-110.847,-19.490
-110.120,-19.390
-109.394,-19.291
-108.667,-19.192
-107.940,-19.093
-107.213,-18.995
-106.486,-18.897
-105.759,-18.800
-105.033,-18.704
-104.311,-18.610
-103.588,-18.516
-102.865,-18.422
-102.141,-18.327
-101.416,-18.234
-100.690,-18.141
-99.963,-18.047
-99.236,-17.953
-98.507,-17.861
-97.778,-17.767
-97.048,-17.674
-96.317,-17.580
-95.586,-17.486
-94.853,-17.393
-94.120,-17.298
-93.386,-17.204
-92.652,-17.109
-91.916,-17.014
-91.180,-16.918
-90.443,-16.822
-89.712,-16.725
-88.983,-16.630
-88.253,-16.535
-87.524,-16.439
-86.794,-16.343
-86.065,-16.248
-85.335,-16.153
-84.606,-16.057
-83.876,-15.962
-83.146,-15.866
-82.417,-15.770
-81.687,-15.675
-80.958,-15.579
-80.228,-15.483
-79.499,-15.386
-78.769,-15.290
-78.039,-15.194
-77.310,-15.097
-76.581,-15.000
-75.851,-14.903
-75.122,-14.806
-74.393,-14.708
-73.664,-14.610
-72.935,-14.512
-72.206,-14.414
-71.478,-14.316
-70.749,-14.218
-70.021,-14.120
-69.292,-14.021
-68.564,-13.923
-67.835,-13.825
-67.106,-13.726
-66.378,-13.628
-65.649,-13.529
-64.921,-13.431
-64.193,-13.332
-63.464,-13.234
-62.736,-13.136
-62.007,-13.037
-61.279,-12.939
-60.551,-12.841
-59.822,-12.743
-59.093,-12.644
-58.364,-12.546
-57.636,-12.449
-56.907,-12.350
-56.179,-12.253
-55.450,-12.155
-54.722,-12.057
-53.993,-11.960
-53.265,-11.862
-52.536,-11.765
-51.808,-11.667
-51.080,-11.570
-50.352,-11.472
-49.623,-11.373
-48.895,-11.276
-48.167,-11.178
-47.438,-11.080
-46.711,-10.983
-45.983,-10.885
-45.256,-10.786
-44.529,-10.689
-43.802,-10.590
-43.074,-10.490
-42.347,-10.391
-41.620,-10.291
-40.892,-10.191
-40.164,-10.091
-39.437,-9.991
-38.709,-9.891
-37.981,-9.791
-37.252,-9.690
-36.524,-9.589
-35.796,-9.489
-35.067,-9.389
-34.338,-9.289
-33.609,-9.189
-32.880,-9.089
-32.150,-8.990
-31.421,-8.890
-30.691,-8.791
-29.963,-8.693
-29.234,-8.595
-28.505,-8.496
-27.777,-8.398
-27.048,-8.301
-26.319,-8.202
-25.590,-8.104
-24.862,-8.007
-24.133,-7.909
-23.404,-7.811
-22.676,-7.714
-21.947,-7.617
-21.218,-7.519
-20.489,-7.422
-19.760,-7.324
-19.031,-7.227
-18.302,-7.130
-17.573,-7.034
-16.844,-6.937
-16.115,-6.840
-15.386,-6.743
-14.657,-6.647
-13.928,-6.551
-13.199,-6.454
-12.470,-6.358
-11.741,-6.262
-11.011,-6.166
-10.283,-6.069
-9.553,-5.974
-8.824,-5.878
-8.095,-5.782
-7.366,-5.687
-6.637,-5.591
-5.908,-5.495
-5.179,-5.400
-4.450,-5.305
-3.720,-5.210
-2.991,-5.115
-2.262,-5.020
