'East','North','Notes: road segment ID 46613, lane 1, lane segment ID 3054829569, distances from lane segment origin in meters'
-0.241,1.806
0.491,1.895
1.219,1.995
1.948,2.090
2.676,2.190
3.409,2.279
4.137,2.379
4.865,2.473
5.594,2.573
6.322,2.668
7.050,2.762
7.779,2.862
8.507,2.957
9.236,3.057
9.964,3.151
10.692,3.246
11.421,3.346
12.149,3.446
12.882,3.540
13.610,3.640
14.338,3.735
15.067,3.835
15.795,3.929
16.523,4.029
17.248,4.129
17.976,4.235
18.704,4.329
19.433,4.429
20.161,4.529
20.890,4.629
21.622,4.724
22.350,4.829
23.079,4.929
23.807,5.030
24.535,5.124
25.264,5.224
25.992,5.324
26.721,5.424
27.449,5.519
28.177,5.619
28.906,5.713
29.634,5.813
30.362,5.908
31.091,6.002
31.823,6.102
32.552,6.197
33.280,6.285
34.008,6.380
34.737,6.480
35.465,6.574
36.194,6.663
36.922,6.758
37.654,6.852
38.387,6.947
39.115,7.041
39.844,7.136
40.572,7.230
41.300,7.330
42.029,7.419
42.757,7.519
43.485,7.619
44.214,7.719
44.942,7.808
45.671,7.908
46.399,8.008
47.127,8.103
47.856,8.203
48.584,8.303
49.312,8.392
50.041,8.492
50.769,8.592
51.498,8.686
52.226,8.786
52.958,8.881
53.687,8.981
54.415,9.081
55.143,9.170
55.872,9.270
56.600,9.370
57.329,9.464
58.061,9.564
58.789,9.664
59.518,9.759
60.246,9.853
60.975,9.953
61.703,10.053
62.431,10.148
63.160,10.242
63.888,10.342
64.620,10.442
65.349,10.537
66.077,10.631
66.806,10.731
67.534,10.832
68.266,10.926
68.995,11.026
69.723,11.120
70.447,11.221
71.176,11.315
71.904,11.409
72.633,11.510
73.361,11.610
74.089,11.710
74.818,11.804
75.546,11.904
76.274,11.999
77.003,12.099
77.731,12.199
78.460,12.293
79.188,12.393
79.916,12.493
80.645,12.588
81.377,12.688
82.105,12.788
82.834,12.882
83.562,12.982
84.291,13.082
85.019,13.177
85.747,13.282
86.476,13.382
87.204,13.477
87.932,13.571
88.661,13.671
89.389,13.766
90.118,13.866
90.846,13.966
91.574,14.060
92.303,14.160
93.031,14.255
93.759,14.349
94.492,14.449
95.220,14.549
95.949,14.638
96.677,14.738
97.409,14.838
98.138,14.927
98.866,15.027
99.595,15.122
100.323,15.216
101.051,15.316
101.780,15.411
102.508,15.505
103.236,15.600
103.965,15.700
104.697,15.789
105.426,15.883
106.154,15.978
106.882,16.072
107.615,16.167
108.343,16.261
109.076,16.356
109.804,16.445
110.532,16.539
111.261,16.634
111.989,16.722
112.718,16.817
113.446,16.911
114.178,17.006
114.907,17.100
115.635,17.195
116.363,17.289
117.092,17.384
117.820,17.484
118.549,17.578
119.277,17.678
120.005,17.767
120.734,17.867
121.462,17.967
122.195,18.056
122.923,18.156
123.651,18.256
124.380,18.345
125.108,18.445
125.841,18.545
126.569,18.634
127.297,18.734
128.026,18.834
128.754,18.923
129.482,19.023
130.211,19.123
130.939,19.212
131.667,19.312
132.396,19.412
133.124,19.507
133.853,19.607
134.585,19.701
135.318,19.801
136.046,19.896
136.774,19.996
137.503,20.090
138.231,20.190
138.959,20.285
139.688,20.385
140.416,20.479
141.145,20.579
141.873,20.674
142.601,20.774
143.330,20.868
144.058,20.968
144.786,21.063
145.515,21.163
146.243,21.257
146.971,21.352
147.700,21.452
148.428,21.552
149.152,21.641
149.881,21.741
150.609,21.841
151.342,21.935
152.070,22.030
152.798,22.124
153.527,22.224
154.255,22.319
154.984,22.413
155.712,22.508
156.440,22.608
157.173,22.708
157.901,22.797
158.630,22.897
159.358,22.991
160.090,23.086
160.819,23.180
161.551,23.280
162.280,23.380
163.008,23.469
163.736,23.569
164.465,23.669
165.193,23.764
165.921,23.858
166.654,23.953
167.382,24.053
168.111,24.147
168.839,24.242
169.567,24.342
170.296,24.436
171.024,24.531
171.752,24.625
172.481,24.725
173.209,24.825
173.938,24.914
174.666,25.014
175.398,25.109
176.127,25.203
176.855,25.303
177.584,25.398
178.312,25.498
179.040,25.587
179.769,25.687
180.497,25.781
181.225,25.876
181.954,25.976
182.682,26.070
183.411,26.165
184.139,26.265
184.871,26.359
185.600,26.454
186.328,26.548
187.061,26.648
187.789,26.743
188.517,26.837
189.246,26.937
189.974,27.032
190.706,27.126
191.435,27.226
192.163,27.321
192.892,27.421
193.620,27.515
194.348,27.610
195.077,27.710
195.805,27.810
196.533,27.898
197.262,27.999
197.994,28.099
198.723,28.193
199.451,28.293
200.179,28.388
200.908,28.482
201.636,28.582
202.365,28.682
203.093,28.782
203.821,28.871
204.550,28.971
205.286,29.071
