'East','North','Notes: road segment ID 53512, lane 1, lane segment ID 3506962433, distances from lane segment origin in meters'
0.716,-1.990
0.025,-2.229
-0.671,-2.473
-1.363,-2.718
-2.055,-2.962
-2.750,-3.201
-3.442,-3.451
-4.138,-3.696
-4.825,-3.940
-5.521,-4.190
-6.213,-4.429
-6.904,-4.674
-7.600,-4.929
-8.288,-5.174
-8.983,-5.419
-9.671,-5.663
-10.367,-5.913
-11.058,-6.163
-11.750,-6.408
-12.442,-6.652
-13.133,-6.902
-13.825,-7.152
