'East','North','Notes: road segment ID 53512, lane 3, lane segment ID 3506962435, distances from lane segment origin in meters'
-2.284,6.358
-2.971,6.102
-3.663,5.846
-4.351,5.596
-5.038,5.346
-5.726,5.091
-6.417,4.841
-7.105,4.590
-7.797,4.346
-8.484,4.090
-9.176,3.846
-9.867,3.601
-10.555,3.357
-11.247,3.107
-11.938,2.862
-12.630,2.618
-13.322,2.379
-14.013,2.129
-14.709,1.890
-15.397,1.651
-16.088,1.412
-16.784,1.167
