'East','North','Notes: road segment ID 53512, lane 5, lane segment ID 3506962437, distances from lane segment origin in meters'
-4.711,13.099
-5.374,12.782
-6.037,12.465
-6.704,12.149
-7.367,11.832
-8.030,11.510
-8.693,11.193
-9.356,10.876
-10.019,10.559
-10.682,10.242
-11.349,9.920
-12.012,9.598
-12.675,9.281
-13.338,8.964
-14.001,8.642
-14.668,8.325
-15.335,8.019
-16.002,7.714
-16.674,7.408
-17.345,7.108
-18.012,6.808
-18.683,6.502
