'East','North','Notes: road segment ID 87388, lane 4, lane segment ID 5727059972, distances from origin (42.5829000, -83.6811000) in meters'
750.084,87.028
750.788,86.960
751.491,86.890
752.194,86.817
752.896,86.743
753.598,86.666
754.300,86.587
755.001,86.506
755.701,86.422
756.401,86.336
757.100,86.248
757.800,86.158
758.498,86.065
759.196,85.971
759.894,85.873
760.592,85.774
761.289,85.671
761.985,85.568
762.681,85.462
763.377,85.353
764.072,85.243
764.767,85.130
765.462,85.015
766.156,84.898
766.849,84.779
767.543,84.657
768.236,84.534
768.928,84.409
769.619,84.281
770.310,84.150
771.001,84.016
771.691,83.881
772.381,83.741
773.070,83.600
773.760,83.456
774.449,83.308
775.138,83.159
775.826,83.007
776.514,82.852
777.201,82.694
777.889,82.534
778.577,82.371
779.263,82.205
779.950,82.037
780.635,81.866
781.322,81.692
782.007,81.516
782.692,81.337
783.377,81.156
784.067,80.971
784.757,80.782
785.445,80.592
786.131,80.399
786.815,80.205
787.497,80.008
788.178,79.810
788.857,79.609
789.533,79.406
790.209,79.202
790.882,78.994
791.554,78.786
792.224,78.575
792.893,78.363
793.560,78.149
794.226,77.932
794.889,77.715
795.552,77.495
796.214,77.273
796.874,77.049
797.532,76.824
798.190,76.597
798.847,76.368
799.505,76.137
800.163,75.902
800.820,75.667
801.477,75.429
802.133,75.188
802.789,74.944
803.445,74.699
804.100,74.451
804.755,74.201
805.409,73.949
806.063,73.693
806.718,73.436
807.372,73.175
808.025,72.912
808.678,72.647
809.332,72.378
809.985,72.107
810.637,71.833
811.290,71.555
811.942,71.276
812.595,70.993
813.248,70.708
813.901,70.418
814.552,70.127
815.201,69.834
815.848,69.539
816.494,69.240
817.137,68.941
817.779,68.638
818.420,68.334
819.059,68.027
819.696,67.718
820.331,67.407
820.965,67.094
821.598,66.779
822.229,66.462
822.858,66.142
823.487,65.820
824.113,65.495
824.738,65.169
825.363,64.841
825.986,64.510
826.607,64.178
827.226,63.843
827.843,63.507
828.460,63.168
829.074,62.828
829.687,62.484
830.299,62.140
830.910,61.793
831.519,61.444
832.127,61.093
832.734,60.740
833.340,60.384
833.945,60.027
834.548,59.667
835.150,59.306
835.752,58.942
836.352,58.575
836.952,58.207
837.550,57.837
838.148,57.465
838.745,57.090
839.341,56.713
839.934,56.335
840.525,55.955
841.115,55.573
841.703,55.190
842.290,54.804
842.876,54.415
843.460,54.025
844.044,53.632
844.625,53.237
845.205,52.840
845.785,52.440
846.363,52.038
846.939,51.634
847.515,51.227
848.089,50.817
848.662,50.405
849.234,49.990
849.805,49.574
850.374,49.154
850.943,48.731
851.510,48.307
852.076,47.879
852.640,47.450
853.201,47.019
853.761,46.585
854.318,46.151
854.873,45.714
855.426,45.275
855.976,44.836
856.525,44.394
857.072,43.950
857.617,43.504
858.159,43.057
858.700,42.607
859.239,42.157
859.776,41.704
860.312,41.249
860.844,40.792
861.376,40.335
861.906,39.874
862.435,39.412
862.961,38.948
863.486,38.482
864.009,38.015
864.532,37.546
865.051,37.075
865.570,36.602
866.087,36.127
866.603,35.651
867.117,35.174
867.630,34.694
868.142,34.212
868.652,33.729
869.161,33.244
869.668,32.757
870.174,32.268
870.679,31.777
871.182,31.283
871.684,30.789
872.185,30.292
872.684,29.792
873.182,29.291
873.679,28.787
874.175,28.281
874.669,27.772
875.162,27.263
875.651,26.753
876.138,26.242
876.622,25.729
877.104,25.215
877.583,24.701
878.060,24.185
878.535,23.667
879.007,23.149
879.478,22.628
879.946,22.107
880.412,21.584
880.876,21.059
881.338,20.533
881.797,20.006
882.255,19.478
882.711,18.947
883.165,18.415
883.617,17.882
884.067,17.346
884.515,16.810
884.962,16.270
885.409,15.728
885.854,15.185
886.296,14.639
886.737,14.093
887.176,13.545
887.612,12.996
888.047,12.445
888.479,11.893
888.910,11.338
889.339,10.784
889.766,10.226
890.191,9.668
890.615,9.107
891.036,8.545
891.456,7.982
891.874,7.416
892.290,6.849
892.704,6.280
893.117,5.709
893.528,5.136
893.937,4.562
894.344,3.986
894.749,3.407
895.152,2.829
895.552,2.248
895.950,1.667
896.344,1.085
896.736,0.502
897.126,-0.083
897.513,-0.669
897.897,-1.256
898.279,-1.844
898.658,-2.433
899.034,-3.024
899.409,-3.616
899.781,-4.209
900.150,-4.805
900.517,-5.400
900.882,-5.998
901.245,-6.597
901.605,-7.198
901.963,-7.800
902.318,-8.403
902.672,-9.010
903.025,-9.619
903.376,-10.230
903.724,-10.842
904.070,-11.455
904.414,-12.069
904.755,-12.684
905.095,-13.300
905.432,-13.917
905.766,-14.535
906.099,-15.155
906.430,-15.776
906.758,-16.397
907.084,-17.020
907.408,-17.645
907.730,-18.270
908.050,-18.897
908.368,-19.526
908.684,-20.155
908.997,-20.786
909.309,-21.419
909.619,-22.053
909.927,-22.689
910.234,-23.326
910.537,-23.964
910.839,-24.602
911.138,-25.241
911.435,-25.881
911.730,-26.522
912.022,-27.163
912.313,-27.806
912.601,-28.449
912.887,-29.094
913.171,-29.739
913.452,-30.386
913.732,-31.033
914.008,-31.681
914.284,-32.331
914.556,-32.982
914.826,-33.633
915.095,-34.286
915.361,-34.941
915.625,-35.596
915.887,-36.254
916.145,-36.909
916.401,-37.564
916.652,-38.220
916.902,-38.876
917.149,-39.532
917.393,-40.190
917.635,-40.848
917.874,-41.507
918.110,-42.167
918.345,-42.828
918.577,-43.488
918.806,-44.151
919.033,-44.813
919.258,-45.477
919.481,-46.142
919.701,-46.808
919.920,-47.474
920.137,-48.141
920.351,-48.809
920.564,-49.479
920.775,-50.150
920.983,-50.821
921.190,-51.493
921.394,-52.165
921.596,-52.836
921.795,-53.508
921.991,-54.180
922.185,-54.853
922.376,-55.526
922.564,-56.199
922.750,-56.873
922.932,-57.546
923.112,-58.221
923.288,-58.896
923.461,-59.572
923.632,-60.249
923.799,-60.926
923.962,-61.604
924.123,-62.283
924.280,-62.962
924.433,-63.643
924.583,-64.325
924.729,-65.007
924.872,-65.692
925.013,-66.383
925.151,-67.074
925.286,-67.765
925.417,-68.457
925.546,-69.149
925.672,-69.841
925.795,-70.534
925.915,-71.229
926.033,-71.922
926.147,-72.618
926.260,-73.313
926.369,-74.009
926.476,-74.706
926.580,-75.403
926.682,-76.102
926.781,-76.800
926.878,-77.500
926.973,-78.200
927.066,-78.901
927.156,-79.602
927.244,-80.305
927.329,-81.008
927.413,-81.709
927.494,-82.409
927.573,-83.109
927.650,-83.808
927.725,-84.508
927.798,-85.206
927.867,-85.904
927.935,-86.602
928.001,-87.300
928.064,-87.996
928.125,-88.693
928.183,-89.389
928.239,-90.086
928.293,-90.782
928.344,-91.477
928.393,-92.173
928.439,-92.868
928.483,-93.563
928.524,-94.259
928.564,-94.959
928.601,-95.659
928.636,-96.359
928.670,-97.059
928.701,-97.761
928.730,-98.461
928.757,-99.164
928.781,-99.865
928.804,-100.568
928.823,-101.270
928.841,-101.973
928.855,-102.677
928.868,-103.380
928.878,-104.084
928.884,-104.788
928.888,-105.493
928.890,-106.197
928.888,-106.902
928.884,-107.608
928.877,-108.313
928.866,-109.018
928.853,-109.723
928.837,-110.429
928.817,-111.134
928.794,-111.838
928.770,-112.541
928.741,-113.244
928.711,-113.947
928.678,-114.650
928.642,-115.352
928.604,-116.054
928.564,-116.755
928.521,-117.457
928.476,-118.158
928.429,-118.860
928.381,-119.560
928.331,-120.260
928.278,-120.961
928.224,-121.661
928.169,-122.361
928.111,-123.061
928.052,-123.761
927.992,-124.460
927.931,-125.160
927.869,-125.860
927.805,-126.560
927.740,-127.256
927.674,-127.952
927.607,-128.647
927.539,-129.343
927.469,-130.037
927.397,-130.732
927.323,-131.426
927.246,-132.120
927.168,-132.815
927.086,-133.508
927.003,-134.203
926.915,-134.896
926.826,-135.590
926.732,-136.284
926.635,-136.978
926.535,-137.671
926.431,-138.365
926.323,-139.059
926.211,-139.752
926.095,-140.446
925.973,-141.143
925.847,-141.838
925.716,-142.532
925.581,-143.225
925.443,-143.915
925.301,-144.605
925.156,-145.294
925.006,-145.981
924.854,-146.667
924.699,-147.351
924.540,-148.035
924.379,-148.719
924.215,-149.400
924.049,-150.082
923.881,-150.762
923.710,-151.442
923.537,-152.121
923.363,-152.800
923.187,-153.478
923.009,-154.156
922.829,-154.833
922.649,-155.510
922.467,-156.190
922.283,-156.867
922.098,-157.546
921.910,-158.223
921.722,-158.900
921.531,-159.576
921.339,-160.251
921.145,-160.927
920.949,-161.601
920.750,-162.275
920.550,-162.949
920.347,-163.622
920.142,-164.296
919.935,-164.968
919.724,-165.640
919.511,-166.311
919.296,-166.982
919.078,-167.653
918.857,-168.323
918.633,-168.993
918.405,-169.662
918.175,-170.331
917.942,-170.998
917.706,-171.663
917.467,-172.327
917.226,-172.989
916.981,-173.649
916.734,-174.307
916.484,-174.966
916.232,-175.622
915.977,-176.277
915.720,-176.930
915.459,-177.582
915.197,-178.233
914.932,-178.884
914.665,-179.533
914.395,-180.182
914.124,-180.829
913.850,-181.475
913.574,-182.121
913.296,-182.766
913.016,-183.411
912.734,-184.054
912.449,-184.699
912.163,-185.343
911.875,-185.986
911.585,-186.628
911.294,-187.269
911.001,-187.908
910.706,-188.547
910.410,-189.184
910.112,-189.820
909.812,-190.456
909.510,-191.089
909.206,-191.722
908.900,-192.354
908.593,-192.985
908.283,-193.615
907.971,-194.245
907.657,-194.872
907.341,-195.499
907.022,-196.125
906.702,-196.751
906.379,-197.375
906.054,-197.999
905.727,-198.621
905.397,-199.242
905.065,-199.861
904.731,-200.479
904.395,-201.095
904.057,-201.710
903.716,-202.324
903.373,-202.936
903.027,-203.548
902.678,-204.158
902.328,-204.767
901.975,-205.374
901.619,-205.981
901.261,-206.586
900.900,-207.191
900.538,-207.795
900.172,-208.397
899.804,-208.998
899.433,-209.598
899.060,-210.198
898.684,-210.796
898.306,-211.394
897.926,-211.988
897.545,-212.581
897.162,-213.170
896.776,-213.757
896.388,-214.343
895.999,-214.926
895.607,-215.508
895.214,-216.089
894.818,-216.667
894.421,-217.244
894.021,-217.819
893.620,-218.393
893.216,-218.965
892.811,-219.537
892.404,-220.106
891.995,-220.675
891.584,-221.242
891.172,-221.809
890.758,-222.375
890.342,-222.940
889.922,-223.507
889.499,-224.075
889.075,-224.641
888.650,-225.206
888.223,-225.770
887.796,-226.332
887.367,-226.893
886.937,-227.452
886.505,-228.010
886.071,-228.566
885.636,-229.121
885.199,-229.675
884.761,-230.227
884.320,-230.778
883.878,-231.326
883.434,-231.874
882.989,-232.420
882.540,-232.964
882.090,-233.507
881.639,-234.048
881.184,-234.588
880.728,-235.126
880.269,-235.663
879.808,-236.197
879.346,-236.731
878.881,-237.261
878.415,-237.788
877.947,-238.311
877.475,-238.833
877.002,-239.352
876.526,-239.869
876.047,-240.384
875.566,-240.896
875.082,-241.407
874.596,-241.915
874.108,-242.422
873.617,-242.927
873.124,-243.430
872.629,-243.932
872.131,-244.431
871.631,-244.929
871.129,-245.426
870.625,-245.922
870.118,-246.416
869.610,-246.909
869.099,-247.401
868.586,-247.891
868.074,-248.377
867.563,-248.861
867.050,-249.342
866.536,-249.821
866.021,-250.297
865.505,-250.771
864.988,-251.243
864.468,-251.712
863.948,-252.180
863.426,-252.644
862.903,-253.107
862.378,-253.567
861.851,-254.025
861.322,-254.481
860.792,-254.935
860.260,-255.386
859.726,-255.835
859.189,-256.282
858.648,-256.729
858.101,-257.177
857.553,-257.624
857.004,-258.068
856.454,-258.511
855.903,-258.952
855.350,-259.391
854.796,-259.828
854.241,-260.264
853.685,-260.698
853.127,-261.129
852.569,-261.559
852.009,-261.987
851.448,-262.414
850.884,-262.839
850.320,-263.262
849.755,-263.684
849.188,-264.104
848.620,-264.522
848.050,-264.938
847.479,-265.353
846.907,-265.767
846.333,-266.178
845.757,-266.589
845.180,-266.997
844.601,-267.404
844.022,-267.809
843.446,-268.209
842.868,-268.606
842.288,-269.001
841.706,-269.394
841.123,-269.785
840.537,-270.173
839.950,-270.560
839.361,-270.944
838.770,-271.326
838.177,-271.706
837.583,-272.085
836.987,-272.460
836.388,-272.835
835.789,-273.207
835.187,-273.577
834.584,-273.945
833.979,-274.312
833.372,-274.676
832.764,-275.040
832.154,-275.401
831.544,-275.759
830.934,-276.115
830.322,-276.468
829.710,-276.819
829.096,-277.168
828.481,-277.514
827.864,-277.859
827.247,-278.201
826.628,-278.541
826.007,-278.878
825.386,-279.214
824.763,-279.547
824.139,-279.878
823.513,-280.207
822.887,-280.534
822.259,-280.858
821.629,-281.180
820.998,-281.500
820.367,-281.818
819.733,-282.134
819.099,-282.447
818.463,-282.759
