'East','North','Notes: road segment ID 8766, lane 2, lane segment ID 574488578, distances from origin (42.5829000, -83.6811000) in meters'
93.095,11.145
93.824,11.242
94.552,11.339
95.280,11.436
96.009,11.533
96.738,11.631
97.466,11.728
98.195,11.825
98.924,11.922
99.652,12.020
100.381,12.118
101.109,12.215
101.837,12.313
102.566,12.410
103.295,12.508
104.023,12.605
104.752,12.703
105.480,12.801
106.208,12.898
106.937,12.996
107.666,13.094
108.394,13.192
109.123,13.291
109.852,13.388
110.580,13.487
111.308,13.586
112.037,13.685
112.765,13.784
113.493,13.883
114.221,13.981
114.950,14.080
115.678,14.179
116.406,14.277
117.134,14.376
117.862,14.474
118.590,14.571
119.318,14.668
120.046,14.766
120.774,14.862
121.502,14.958
122.231,15.055
122.960,15.150
123.689,15.246
124.418,15.341
125.147,15.436
125.876,15.531
126.605,15.626
127.334,15.721
128.063,15.815
128.792,15.910
129.521,16.005
130.250,16.099
130.979,16.194
131.708,16.288
132.437,16.383
133.166,16.478
133.895,16.572
134.624,16.667
135.353,16.762
136.082,16.857
136.811,16.953
137.540,17.049
138.269,17.144
138.998,17.240
139.727,17.335
140.456,17.431
141.185,17.527
141.913,17.623
142.642,17.719
143.372,17.815
144.100,17.911
144.829,18.007
145.558,18.102
146.287,18.198
147.016,18.294
147.745,18.390
148.473,18.486
149.203,18.581
149.931,18.677
150.660,18.773
151.389,18.868
152.118,18.964
152.847,19.059
153.575,19.154
154.305,19.247
155.033,19.342
155.762,19.436
156.491,19.529
157.220,19.623
157.950,19.716
158.679,19.810
159.408,19.902
160.138,19.996
160.867,20.090
161.596,20.184
162.326,20.278
163.055,20.372
163.784,20.467
164.514,20.562
165.243,20.658
165.972,20.753
166.702,20.851
167.432,20.948
168.162,21.046
168.891,21.145
169.620,21.243
170.349,21.343
171.078,21.442
171.807,21.542
172.536,21.642
173.265,21.743
173.993,21.843
174.721,21.944
175.449,22.044
176.177,22.145
176.905,22.245
177.634,22.345
178.361,22.445
179.089,22.544
179.817,22.644
180.544,22.742
181.272,22.841
182.001,22.940
182.729,23.037
183.458,23.135
184.186,23.234
184.915,23.332
185.644,23.430
186.372,23.528
187.101,23.626
187.829,23.724
188.557,23.822
189.286,23.920
190.015,24.018
190.743,24.116
191.472,24.214
192.201,24.311
192.929,24.409
193.658,24.506
194.386,24.603
195.115,24.701
195.844,24.797
196.572,24.895
197.300,24.991
198.028,25.088
198.756,25.184
199.485,25.280
200.214,25.377
200.942,25.473
201.671,25.569
202.400,25.665
203.129,25.761
203.858,25.857
204.587,25.953
205.317,26.049
206.046,26.145
206.775,26.242
207.504,26.339
208.234,26.435
208.964,26.533
209.694,26.630
210.423,26.728
211.152,26.825
211.881,26.924
212.610,27.022
213.338,27.119
214.067,27.218
214.796,27.315
215.524,27.413
216.253,27.511
216.981,27.610
217.711,27.707
218.439,27.806
219.168,27.903
219.896,28.002
220.625,28.100
221.354,28.197
222.082,28.296
222.811,28.394
223.539,28.492
224.268,28.590
224.997,28.688
225.725,28.786
226.454,28.884
227.182,28.982
227.911,29.081
228.639,29.179
229.368,29.276
230.097,29.375
230.825,29.472
231.554,29.571
232.283,29.669
233.011,29.766
233.740,29.865
234.468,29.963
235.197,30.061
235.926,30.159
236.654,30.257
237.383,30.355
238.111,30.453
238.840,30.551
239.569,30.649
240.297,30.747
241.025,30.845
241.754,30.943
242.483,31.042
243.211,31.140
243.940,31.238
244.668,31.336
245.397,31.435
246.126,31.533
246.854,31.631
247.583,31.729
248.311,31.828
249.040,31.926
249.769,32.024
250.497,32.123
251.225,32.221
251.954,32.319
252.683,32.418
253.411,32.516
254.140,32.615
254.868,32.713
255.596,32.811
256.323,32.909
257.050,33.007
257.778,33.104
258.506,33.202
259.233,33.299
259.962,33.396
260.690,33.493
261.418,33.590
262.147,33.687
262.875,33.783
263.604,33.880
264.333,33.977
265.062,34.073
265.791,34.171
266.521,34.267
267.250,34.365
267.980,34.462
268.709,34.559
269.439,34.657
270.169,34.755
270.898,34.853
271.627,34.950
272.356,35.048
273.085,35.147
273.814,35.245
274.543,35.343
275.272,35.441
276.000,35.539
276.729,35.637
277.457,35.736
278.186,35.835
278.914,35.932
279.643,36.031
280.371,36.129
281.099,36.227
281.828,36.325
282.556,36.423
283.283,36.521
284.011,36.618
284.740,36.716
285.468,36.813
286.196,36.912
286.924,37.009
287.652,37.106
288.380,37.204
289.109,37.302
289.837,37.400
290.566,37.497
291.294,37.595
292.023,37.692
292.751,37.790
293.480,37.888
294.209,37.986
294.938,38.083
295.667,38.181
296.396,38.279
297.125,38.377
297.855,38.474
298.584,38.572
299.313,38.669
300.043,38.768
300.772,38.864
301.501,38.962
302.230,39.058
302.959,39.156
303.688,39.252
304.417,39.349
305.146,39.445
305.875,39.541
306.604,39.637
307.333,39.733
308.062,39.829
308.790,39.925
309.519,40.021
310.247,40.117
310.976,40.214
311.705,40.309
312.433,40.406
313.162,40.503
313.890,40.600
314.618,40.696
315.346,40.793
316.075,40.891
316.804,40.987
317.532,41.084
318.261,41.181
318.989,41.278
319.718,41.375
320.447,41.472
321.175,41.569
321.904,41.666
322.633,41.763
323.362,41.860
324.091,41.957
324.819,42.054
325.548,42.151
326.277,42.248
327.006,42.345
327.735,42.442
328.464,42.540
329.194,42.637
329.922,42.734
330.652,42.832
331.380,42.930
332.109,43.028
332.838,43.125
333.567,43.223
334.295,43.321
335.024,43.419
335.753,43.516
336.481,43.614
337.210,43.712
337.939,43.810
338.667,43.908
339.396,44.006
340.124,44.104
340.853,44.201
341.581,44.299
342.310,44.397
343.038,44.494
343.766,44.592
344.495,44.690
345.223,44.787
345.952,44.885
346.681,44.983
347.409,45.080
348.138,45.178
348.867,45.276
349.595,45.373
350.324,45.471
351.052,45.568
351.780,45.666
352.509,45.763
353.238,45.861
353.966,45.959
354.695,46.056
355.423,46.153
356.152,46.251
356.881,46.349
357.609,46.446
358.338,46.544
359.066,46.641
