'East','North','Notes: road segment ID 9893, lane 2, lane segment ID 648347650, distances from lane segment origin in meters'
-0.426,1.867
-1.146,1.706
-1.866,1.545
-2.582,1.378
-3.302,1.217
-4.014,1.045
-4.735,0.884
-5.455,0.717
-6.171,0.556
-6.891,0.389
-7.603,0.222
-8.323,0.056
-9.044,-0.111
-9.760,-0.278
-10.480,-0.439
-11.192,-0.611
-11.912,-0.778
-12.632,-0.945
-13.344,-1.111
-14.065,-1.278
-14.785,-1.450
-15.497,-1.617
-16.217,-1.790
-16.937,-1.956
-17.649,-2.123
-18.370,-2.295
-19.086,-2.462
-19.802,-2.634
-20.518,-2.807
-21.238,-2.973
-21.950,-3.146
-22.670,-3.318
-23.383,-3.490
-24.103,-3.657
-24.815,-3.829
-25.531,-4.001
-26.247,-4.168
-26.963,-4.340
-27.679,-4.513
-28.391,-4.679
-29.107,-4.846
-29.824,-5.018
-30.536,-5.185
-31.256,-5.357
-31.968,-5.524
-32.684,-5.691
-33.400,-5.863
-34.116,-6.030
-34.832,-6.197
-35.548,-6.363
-36.269,-6.530
-36.981,-6.702
-37.701,-6.869
-38.413,-7.036
-39.133,-7.208
-39.849,-7.375
-40.565,-7.547
-41.282,-7.714
-42.002,-7.880
-42.714,-8.053
-43.434,-8.225
-44.150,-8.392
-44.866,-8.559
-45.582,-8.736
-46.299,-8.903
-47.015,-9.075
-47.727,-9.248
-48.443,-9.420
-49.159,-9.592
-49.871,-9.764
-50.591,-9.937
-51.303,-10.109
-52.015,-10.276
-52.731,-10.454
-53.443,-10.626
-54.164,-10.798
-54.876,-10.976
-55.588,-11.143
-56.304,-11.315
-57.016,-11.487
-57.732,-11.665
-58.448,-11.832
-59.160,-12.004
-59.872,-12.176
-60.592,-12.354
-61.304,-12.521
-62.017,-12.693
-62.733,-12.871
-63.449,-13.038
-64.165,-13.210
-64.877,-13.377
-65.597,-13.555
-66.309,-13.721
-67.021,-13.894
-67.741,-14.060
-68.453,-14.233
-69.174,-14.405
-69.886,-14.572
-70.602,-14.744
-71.318,-14.916
-72.034,-15.083
-72.750,-15.250
-73.462,-15.428
-74.178,-15.594
-74.894,-15.761
-75.611,-15.933
-76.327,-16.106
-77.043,-16.272
-77.759,-16.439
-78.471,-16.611
-79.191,-16.784
-79.903,-16.950
-80.619,-17.123
-81.336,-17.289
-82.052,-17.456
-82.768,-17.623
-83.484,-17.795
-84.200,-17.967
-84.912,-18.134
-85.632,-18.306
-86.344,-18.473
-87.065,-18.640
-87.777,-18.812
