'East','North','Notes: road segment ID 9893, lane 3, lane segment ID 648347651, distances from lane segment origin in meters'
-1.244,5.457
-1.964,5.285
-2.684,5.118
-3.401,4.946
-4.121,4.779
-4.833,4.607
-5.553,4.440
-6.273,4.268
-6.989,4.101
-7.710,3.935
-8.426,3.757
-9.142,3.590
-9.862,3.418
-10.578,3.251
-11.298,3.084
-12.015,2.912
-12.731,2.745
-13.451,2.568
-14.167,2.401
-14.887,2.234
-15.607,2.062
-16.324,1.895
-17.044,1.723
-17.764,1.551
-18.480,1.384
-19.196,1.212
-19.916,1.045
-20.633,0.878
-21.353,0.706
-22.073,0.539
-22.785,0.367
-23.505,0.195
-24.221,0.028
-24.938,-0.139
-25.654,-0.311
-26.370,-0.478
-27.086,-0.650
-27.802,-0.817
-28.518,-0.989
-29.230,-1.156
-29.950,-1.323
-30.662,-1.495
-31.374,-1.662
-32.095,-1.834
-32.807,-2.006
-33.523,-2.173
-34.239,-2.340
-34.955,-2.512
-35.671,-2.679
-36.387,-2.851
-37.108,-3.018
-37.820,-3.190
-38.540,-3.357
-39.252,-3.529
-39.972,-3.701
-40.692,-3.874
-41.404,-4.040
-42.125,-4.213
-42.845,-4.379
-43.561,-4.557
-44.277,-4.724
-44.997,-4.896
-45.709,-5.063
-46.430,-5.235
-47.142,-5.407
-47.862,-5.574
-48.574,-5.746
-49.290,-5.919
-50.006,-6.085
-50.722,-6.258
-51.438,-6.424
-52.150,-6.597
-52.866,-6.763
-53.583,-6.936
-54.299,-7.108
-55.015,-7.275
-55.727,-7.447
-56.443,-7.614
-57.159,-7.786
-57.871,-7.953
-58.583,-8.125
-59.303,-8.292
-60.015,-8.464
-60.727,-8.631
-61.448,-8.803
-62.160,-8.975
-62.876,-9.142
-63.592,-9.314
-64.304,-9.481
-65.024,-9.653
-65.736,-9.820
-66.456,-9.992
-67.169,-10.165
-67.881,-10.331
-68.601,-10.498
-69.313,-10.676
-70.033,-10.843
-70.745,-11.009
-71.465,-11.187
-72.177,-11.354
-72.898,-11.521
-73.610,-11.693
-74.322,-11.865
-75.042,-12.037
-75.754,-12.204
-76.474,-12.376
-77.186,-12.549
-77.902,-12.715
-78.618,-12.888
-79.330,-13.060
-80.051,-13.232
-80.763,-13.399
-81.483,-13.571
-82.195,-13.744
-82.911,-13.910
-83.627,-14.083
-84.343,-14.255
-85.059,-14.427
-85.771,-14.594
-86.488,-14.766
-87.204,-14.938
-87.920,-15.105
-88.636,-15.283
