'East','North','Notes: road segment ID 10068, lane 1, lane segment ID 659816449, distances from lane segment origin in meters'
0.421,-1.701
-0.291,-1.878
-1.007,-2.051
-1.723,-2.223
-2.435,-2.401
-3.147,-2.568
-3.867,-2.745
-4.579,-2.918
-5.291,-3.096
-6.007,-3.273
-6.719,-3.440
-7.436,-3.618
-8.148,-3.790
-8.864,-3.968
-9.576,-4.146
-10.292,-4.313
-11.008,-4.490
-11.720,-4.668
-12.432,-4.841
-13.148,-5.018
-13.864,-5.196
-14.576,-5.369
-15.288,-5.541
-16.001,-5.719
-16.717,-5.896
-17.433,-6.074
-18.145,-6.247
-18.857,-6.424
-19.573,-6.602
-20.285,-6.775
-21.001,-6.952
-21.713,-7.125
-22.425,-7.303
-23.141,-7.480
-23.853,-7.658
-24.565,-7.836
-25.282,-8.008
-25.998,-8.186
-26.710,-8.364
-27.422,-8.547
-28.134,-8.725
-28.846,-8.898
-29.566,-9.075
-30.278,-9.253
-30.990,-9.431
-31.702,-9.609
-32.414,-9.792
-33.130,-9.970
-33.847,-10.148
-34.559,-10.320
-35.271,-10.504
-35.983,-10.681
-36.699,-10.859
-37.411,-11.043
-38.123,-11.221
-38.839,-11.398
-39.551,-11.582
-40.263,-11.760
-40.975,-11.943
-41.691,-12.121
-42.403,-12.299
-43.115,-12.482
-43.832,-12.665
-44.544,-12.849
-45.256,-13.032
-45.968,-13.210
-46.680,-13.394
-47.392,-13.577
-48.104,-13.760
-48.816,-13.944
-49.536,-14.122
-50.248,-14.310
-50.960,-14.494
-51.672,-14.677
-52.384,-14.861
-53.096,-15.044
-53.808,-15.227
-54.516,-15.416
-55.228,-15.600
-55.944,-15.789
-56.657,-15.972
-57.369,-16.156
-58.081,-16.345
-58.793,-16.528
-59.505,-16.717
-60.217,-16.906
-60.929,-17.095
-61.637,-17.284
-62.349,-17.473
-63.061,-17.662
-63.773,-17.851
-64.485,-18.040
-65.197,-18.229
-65.905,-18.417
-66.617,-18.606
-67.329,-18.795
-68.041,-18.984
-68.749,-19.173
-69.461,-19.373
-70.173,-19.562
-70.881,-19.751
-71.593,-19.946
-72.305,-20.135
-73.017,-20.329
-73.725,-20.524
-74.437,-20.713
-75.145,-20.907
-75.857,-21.102
-76.569,-21.296
-77.277,-21.491
-77.985,-21.685
-78.693,-21.880
-79.405,-22.074
-80.117,-22.269
-80.825,-22.463
-81.537,-22.663
-82.245,-22.858
-82.957,-23.058
-83.665,-23.252
-84.373,-23.447
-85.081,-23.641
