'East','North','Notes: road segment ID 10073, lane 3, lane segment ID 660144131, distances from lane segment origin in meters'
-3.028,4.741
-3.646,4.346
-4.268,3.957
-4.890,3.562
-5.508,3.168
-6.126,2.779
-6.748,2.384
-7.366,1.995
-7.988,1.601
-8.602,1.212
-9.224,0.817
-9.846,0.422
-10.464,0.033
-11.086,-0.356
-11.704,-0.750
-12.322,-1.145
-12.944,-1.534
-13.566,-1.923
-14.184,-2.317
-14.806,-2.712
-15.424,-3.101
-16.042,-3.490
-16.664,-3.879
-17.282,-4.274
-17.900,-4.663
-18.522,-5.057
-19.140,-5.446
-19.762,-5.841
-20.384,-6.230
-21.002,-6.619
-21.624,-7.019
-22.246,-7.408
-22.869,-7.797
-23.491,-8.186
-24.113,-8.581
-24.735,-8.975
-25.357,-9.364
-25.979,-9.759
-26.601,-10.148
-27.223,-10.543
-27.845,-10.937
-28.467,-11.326
-29.089,-11.715
-29.711,-12.110
-30.333,-12.504
-30.959,-12.893
-31.585,-13.282
-32.207,-13.671
-32.829,-14.060
-33.452,-14.455
-34.074,-14.844
-34.696,-15.233
-35.318,-15.622
-35.940,-16.011
-36.566,-16.400
-37.188,-16.800
-37.810,-17.189
-38.432,-17.578
-39.054,-17.967
-39.676,-18.356
-40.298,-18.751
-40.920,-19.140
-41.542,-19.535
-42.160,-19.924
-42.782,-20.313
-43.404,-20.707
-44.026,-21.096
-44.648,-21.491
-45.270,-21.885
-45.888,-22.274
-46.510,-22.663
-47.133,-23.052
-47.755,-23.453
-48.377,-23.842
-48.999,-24.231
-49.621,-24.620
-50.243,-25.020
-50.865,-25.409
-51.487,-25.798
-52.109,-26.192
-52.731,-26.587
-53.353,-26.976
-53.971,-27.371
-54.589,-27.760
-55.211,-28.154
-55.833,-28.549
-56.455,-28.938
-57.077,-29.327
-57.699,-29.727
-58.321,-30.116
-58.943,-30.505
-59.565,-30.900
-60.187,-31.294
-60.809,-31.683
-61.431,-32.078
-62.049,-32.472
-62.671,-32.861
-63.294,-33.256
-63.916,-33.650
-64.538,-34.045
-65.160,-34.434
-65.782,-34.829
-66.408,-35.223
-67.030,-35.612
-67.652,-36.001
-68.274,-36.396
-68.896,-36.790
-69.522,-37.179
-70.144,-37.574
-70.766,-37.963
-71.388,-38.358
-72.010,-38.752
-72.632,-39.141
-73.255,-39.530
-73.877,-39.930
-74.499,-40.319
-75.121,-40.708
-75.743,-41.097
-76.365,-41.498
-76.987,-41.887
-77.609,-42.276
-78.231,-42.676
-78.853,-43.065
-79.475,-43.454
-80.097,-43.848
-80.719,-44.243
-81.341,-44.638
-81.959,-45.027
-82.581,-45.427
-83.207,-45.816
-83.829,-46.210
-84.451,-46.599
-85.073,-47.000
-85.696,-47.394
-86.318,-47.783
-86.936,-48.183
-87.562,-48.572
-88.184,-48.967
-88.806,-49.361
-89.428,-49.756
-90.050,-50.145
-90.672,-50.545
-91.294,-50.934
-91.920,-51.323
-92.542,-51.723
-93.164,-52.112
-93.786,-52.501
-94.408,-52.896
-95.034,-53.291
-95.656,-53.680
-96.279,-54.074
-96.901,-54.463
-97.523,-54.858
-98.145,-55.252
-98.767,-55.641
-99.389,-56.036
-100.011,-56.425
-100.633,-56.814
-101.259,-57.214
-101.877,-57.603
-102.499,-57.998
-103.117,-58.392
-103.739,-58.781
-104.361,-59.176
-104.983,-59.571
-105.605,-59.965
-106.227,-60.360
-106.849,-60.749
-107.471,-61.149
-108.093,-61.538
-108.715,-61.927
-109.337,-62.327
-109.955,-62.716
-110.578,-63.116
-111.195,-63.505
-111.818,-63.900
-112.440,-64.294
-113.058,-64.683
-113.680,-65.078
-114.302,-65.473
-114.924,-65.867
-115.542,-66.256
-116.160,-66.656
-116.782,-67.045
-117.404,-67.440
-118.022,-67.834
-118.640,-68.229
-119.262,-68.618
-119.884,-69.018
-120.502,-69.407
-121.124,-69.802
-121.746,-70.196
-122.368,-70.591
-122.986,-70.980
-123.608,-71.380
-124.230,-71.769
-124.852,-72.164
-125.474,-72.558
-126.092,-72.953
-126.714,-73.342
-127.336,-73.742
-127.958,-74.131
-128.580,-74.531
-129.202,-74.920
-129.824,-75.320
-130.450,-75.715
-131.072,-76.104
-131.690,-76.504
-132.312,-76.904
-132.930,-77.299
-133.548,-77.699
-134.170,-78.094
-134.788,-78.488
-135.406,-78.883
-136.024,-79.283
-136.642,-79.677
-137.260,-80.072
-137.882,-80.472
-138.500,-80.867
-139.118,-81.256
-139.736,-81.650
-140.358,-82.039
-140.976,-82.434
-141.598,-82.823
-142.220,-83.212
-142.842,-83.601
-143.464,-83.990
-144.086,-84.379
-144.708,-84.768
-145.330,-85.157
-145.952,-85.546
-146.575,-85.935
-147.197,-86.330
-147.827,-86.719
-148.449,-87.108
-149.071,-87.497
-149.693,-87.886
-150.319,-88.275
-150.945,-88.664
-151.567,-89.058
-152.193,-89.448
-152.815,-89.842
-153.438,-90.231
-154.064,-90.620
-154.690,-91.009
-155.312,-91.404
-155.934,-91.793
-156.556,-92.187
-157.182,-92.576
-157.800,-92.965
-158.426,-93.360
-159.044,-93.755
-159.666,-94.149
-160.288,-94.544
-160.910,-94.933
-161.528,-95.327
-162.154,-95.722
-162.772,-96.111
-163.394,-96.505
-164.012,-96.900
-164.634,-97.295
-165.252,-97.684
-165.874,-98.078
-166.496,-98.467
-167.119,-98.862
-167.736,-99.251
-168.359,-99.645
-168.981,-100.040
-169.603,-100.429
-170.225,-100.824
-170.843,-101.218
-171.465,-101.613
-172.087,-102.002
-172.705,-102.391
-173.323,-102.791
-173.945,-103.180
-174.567,-103.575
-175.185,-103.969
-175.807,-104.364
-176.429,-104.753
-177.047,-105.147
-177.669,-105.536
-178.291,-105.937
-178.909,-106.326
-179.531,-106.720
-180.153,-107.109
-180.775,-107.504
-181.393,-107.893
-182.015,-108.293
-182.637,-108.687
-183.255,-109.076
-183.877,-109.471
-184.499,-109.860
-185.117,-110.255
-185.739,-110.655
-186.365,-111.044
-186.983,-111.438
-187.605,-111.833
-188.227,-112.222
-188.845,-112.617
-189.467,-113.006
-190.089,-113.406
-190.711,-113.795
-191.333,-114.189
-191.951,-114.578
-192.573,-114.967
-193.196,-115.356
-193.818,-115.745
-194.440,-116.146
-195.062,-116.535
-195.684,-116.924
-196.310,-117.307
-196.936,-117.696
-197.558,-118.085
-198.184,-118.474
-198.806,-118.863
-199.428,-119.258
-200.054,-119.647
-200.676,-120.036
-201.299,-120.425
-201.929,-120.808
-202.551,-121.197
-203.177,-121.592
-203.799,-121.986
-204.421,-122.376
-205.051,-122.765
-205.677,-123.159
-206.304,-123.554
-206.930,-123.943
-207.552,-124.332
-208.174,-124.726
-208.804,-125.121
-209.426,-125.510
-210.048,-125.899
-210.670,-126.294
-211.292,-126.688
-211.914,-127.077
-212.536,-127.466
-213.158,-127.855
-213.780,-128.244
-214.402,-128.639
-215.025,-129.028
-215.643,-129.417
-216.260,-129.806
-216.883,-130.195
-217.505,-130.584
-218.127,-130.973
-218.749,-131.368
-219.371,-131.757
-219.993,-132.146
-220.619,-132.535
-221.241,-132.924
-221.859,-133.313
-222.481,-133.702
-223.107,-134.096
-223.729,-134.485
-224.351,-134.869
-224.973,-135.258
-225.599,-135.652
-226.221,-136.041
-226.843,-136.430
-227.461,-136.825
-228.083,-137.214
-228.706,-137.603
-229.328,-137.992
-229.950,-138.387
-230.572,-138.781
-231.190,-139.170
-231.812,-139.559
-232.434,-139.954
-233.056,-140.348
-233.674,-140.743
-234.296,-141.132
-234.918,-141.527
-235.540,-141.921
-236.158,-142.316
-236.780,-142.710
-237.402,-143.099
-238.024,-143.499
-238.642,-143.888
-239.264,-144.283
-239.886,-144.683
-240.508,-145.072
-241.130,-145.467
-241.752,-145.856
-242.374,-146.256
-242.996,-146.651
-243.618,-147.040
-244.236,-147.440
-244.858,-147.829
-245.480,-148.223
-246.102,-148.618
-246.725,-149.012
-247.347,-149.402
-247.969,-149.802
-248.587,-150.191
-249.209,-150.591
-249.831,-150.980
-250.453,-151.374
-251.075,-151.769
-251.693,-152.158
-252.315,-152.553
-252.937,-152.947
-253.559,-153.342
-254.177,-153.731
-254.799,-154.120
-255.417,-154.520
-256.039,-154.909
-256.661,-155.298
-257.283,-155.687
-257.905,-156.087
-258.527,-156.476
-259.149,-156.865
-259.771,-157.254
-260.393,-157.649
-261.015,-158.038
-261.641,-158.427
-262.263,-158.816
-262.886,-159.210
-263.512,-159.599
-264.134,-159.988
-264.756,-160.383
-265.382,-160.772
-266.004,-161.161
-266.626,-161.556
-267.256,-161.950
-267.878,-162.339
-268.500,-162.739
-269.122,-163.128
-269.749,-163.529
-270.375,-163.918
-270.997,-164.312
-271.619,-164.707
-272.245,-165.101
-272.867,-165.496
-273.489,-165.891
-274.111,-166.285
-274.733,-166.680
-275.355,-167.074
-275.977,-167.469
-276.599,-167.863
-277.221,-168.258
-277.843,-168.647
-278.465,-169.042
-279.087,-169.436
-279.710,-169.825
-280.332,-170.225
-280.954,-170.614
-281.576,-171.009
-282.198,-171.404
-282.820,-171.793
-283.442,-172.187
-284.068,-172.582
-284.694,-172.971
-285.316,-173.365
-285.934,-173.754
-286.556,-174.143
-287.178,-174.538
-287.800,-174.933
-288.422,-175.322
-289.044,-175.711
-289.666,-176.105
-290.288,-176.494
-290.910,-176.883
-291.528,-177.272
-292.151,-177.672
-292.773,-178.061
-293.395,-178.450
-294.017,-178.845
-294.635,-179.240
-295.253,-179.629
-295.875,-180.023
-296.497,-180.418
-297.119,-180.807
-297.741,-181.207
-298.359,-181.596
-298.977,-181.991
-299.599,-182.385
-300.221,-182.780
-300.839,-183.174
-301.457,-183.563
-302.079,-183.963
-302.701,-184.352
-303.319,-184.741
-303.941,-185.142
-304.559,-185.531
-305.181,-185.920
-305.803,-186.314
-306.425,-186.709
-307.047,-187.098
-307.669,-187.487
-308.291,-187.876
-308.913,-188.270
-309.539,-188.665
-310.161,-189.054
-310.783,-189.443
-311.405,-189.832
-312.027,-190.221
-312.650,-190.616
-313.272,-191.005
-313.894,-191.399
-314.520,-191.788
-315.146,-192.177
-315.768,-192.566
-316.390,-192.961
-317.012,-193.350
-317.634,-193.739
-318.256,-194.134
-318.878,-194.523
-319.500,-194.912
-320.122,-195.306
-320.744,-195.701
-321.366,-196.090
-321.988,-196.479
-322.610,-196.879
-323.233,-197.268
-323.855,-197.657
-324.477,-198.046
-325.099,-198.441
-325.721,-198.835
-326.343,-199.224
-326.965,-199.619
-327.587,-200.008
-328.213,-200.402
-328.835,-200.797
-329.457,-201.186
-330.079,-201.575
-330.701,-201.970
-331.323,-202.364
-331.945,-202.753
-332.567,-203.153
-333.189,-203.542
-333.811,-203.937
-334.434,-204.332
-335.056,-204.726
-335.678,-205.115
-336.300,-205.515
-336.922,-205.904
-337.544,-206.299
-338.162,-206.699
-338.784,-207.088
-339.406,-207.483
-340.028,-207.877
-340.646,-208.272
-341.268,-208.661
-341.890,-209.055
-342.504,-209.450
-343.126,-209.839
-343.748,-210.228
-344.370,-210.623
-344.988,-211.017
-345.610,-211.406
-346.232,-211.795
-346.854,-212.184
-347.476,-212.573
-348.098,-212.962
-348.724,-213.346
-349.346,-213.735
-349.968,-214.124
-350.595,-214.513
-351.221,-214.902
-351.843,-215.291
-352.469,-215.680
-353.095,-216.069
-353.717,-216.458
-354.343,-216.853
-354.969,-217.247
-355.595,-217.636
-356.218,-218.025
-356.844,-218.420
-357.470,-218.814
-358.092,-219.203
-358.714,-219.598
-359.336,-219.992
-359.966,-220.387
-360.588,-220.776
-361.210,-221.176
-361.832,-221.565
-362.450,-221.954
-363.072,-222.349
-363.694,-222.743
-364.316,-223.138
-364.939,-223.527
-365.552,-223.922
-366.174,-224.316
-366.796,-224.705
-367.414,-225.094
-368.032,-225.489
-368.654,-225.878
-369.276,-226.267
-369.899,-226.667
-370.521,-227.056
-371.143,-227.445
-371.761,-227.840
-372.383,-228.229
-373.005,-228.623
-373.627,-229.012
-374.253,-229.401
-374.875,-229.796
-375.497,-230.185
-376.115,-230.579
-376.737,-230.969
-377.363,-231.363
-377.985,-231.752
-378.607,-232.141
-379.229,-232.536
-379.851,-232.930
-380.473,-233.325
-381.091,-233.714
-381.713,-234.103
-382.340,-234.503
-382.962,-234.892
-383.584,-235.287
-384.206,-235.681
-384.828,-236.070
-385.450,-236.465
-386.068,-236.859
-386.690,-237.248
-387.312,-237.643
-387.934,-238.038
-388.552,-238.427
-389.174,-238.821
-389.792,-239.216
-390.414,-239.605
-391.036,-239.999
-391.654,-240.394
-392.272,-240.783
-392.894,-241.178
-393.512,-241.572
-394.134,-241.961
-394.756,-242.350
-395.370,-242.750
-395.992,-243.139
-396.614,-243.534
-397.236,-243.929
-397.854,-244.323
-398.476,-244.712
-399.098,-245.112
-399.720,-245.501
-400.338,-245.896
-400.956,-246.290
-401.578,-246.685
-402.200,-247.074
-402.818,-247.474
-403.440,-247.863
-404.062,-248.258
-404.684,-248.652
-405.306,-249.047
-405.928,-249.442
-406.546,-249.836
-407.168,-250.225
-407.790,-250.625
-408.412,-251.014
-409.034,-251.409
-409.656,-251.803
-410.274,-252.198
-410.897,-252.587
-411.519,-252.982
-412.137,-253.376
-412.759,-253.765
-413.381,-254.160
-414.003,-254.554
-414.625,-254.943
-415.247,-255.338
-415.869,-255.733
-416.487,-256.122
-417.109,-256.516
-417.731,-256.911
-418.353,-257.300
-418.975,-257.694
-419.597,-258.089
-420.219,-258.478
-420.841,-258.867
-421.463,-259.256
-422.089,-259.656
-422.711,-260.045
-423.333,-260.434
-423.955,-260.823
-424.578,-261.218
-425.200,-261.607
-425.822,-261.996
-426.444,-262.385
-427.070,-262.779
-427.692,-263.174
-428.314,-263.563
-428.936,-263.952
-429.562,-264.341
-430.184,-264.730
-430.806,-265.125
-431.428,-265.514
-432.054,-265.908
-432.676,-266.297
-433.298,-266.686
-433.921,-267.075
-434.547,-267.470
-435.169,-267.865
-435.791,-268.254
-436.413,-268.643
-437.039,-269.032
-437.661,-269.426
-438.283,-269.821
-438.905,-270.210
-439.531,-270.599
-440.153,-270.993
-440.775,-271.382
-441.397,-271.777
-442.019,-272.166
-442.642,-272.561
-443.264,-272.950
-443.886,-273.339
-444.508,-273.733
-445.130,-274.122
-445.752,-274.517
-446.378,-274.906
-447.000,-275.300
-447.622,-275.695
-448.244,-276.084
-448.870,-276.479
-449.492,-276.873
-450.114,-277.262
-450.736,-277.657
-451.362,-278.046
-451.985,-278.440
-452.607,-278.835
-453.229,-279.224
-453.851,-279.619
-454.473,-280.008
-455.095,-280.402
-455.717,-280.797
-456.339,-281.186
-456.965,-281.580
-457.587,-281.975
-458.213,-282.370
-458.839,-282.764
-459.470,-283.159
-460.092,-283.553
-460.718,-283.953
-461.340,-284.342
-461.966,-284.737
-462.588,-285.132
-463.210,-285.526
-463.832,-285.921
-464.454,-286.310
-465.076,-286.704
-465.694,-287.099
-466.312,-287.488
-466.934,-287.883
-467.548,-288.272
-468.170,-288.666
-468.784,-289.055
-469.402,-289.444
-470.020,-289.833
-470.638,-290.222
-471.260,-290.617
-471.874,-291.006
-472.496,-291.395
-473.118,-291.789
-473.736,-292.178
-474.358,-292.568
-474.980,-292.968
-475.602,-293.357
-476.224,-293.751
-476.850,-294.140
-477.472,-294.529
-478.090,-294.924
-478.712,-295.313
-479.338,-295.707
-479.960,-296.096
-480.582,-296.497
-481.209,-296.886
-481.831,-297.280
-482.461,-297.675
-483.083,-298.069
-483.705,-298.458
-484.323,-298.859
-484.945,-299.248
-485.567,-299.642
-486.189,-300.037
-486.811,-300.431
-487.433,-300.820
-488.055,-301.220
-488.669,-301.610
-489.291,-302.004
-489.913,-302.399
-490.535,-302.793
-491.157,-303.188
-491.779,-303.582
-492.397,-303.977
-493.015,-304.366
-493.637,-304.761
-494.259,-305.155
-494.881,-305.544
-495.503,-305.944
-496.125,-306.333
-496.743,-306.722
-497.366,-307.117
-497.988,-307.512
-498.610,-307.901
-499.232,-308.295
-499.854,-308.684
-500.476,-309.073
-501.098,-309.473
-501.720,-309.862
-502.342,-310.251
-502.964,-310.646
-503.586,-311.035
-504.208,-311.424
-504.830,-311.824
-505.452,-312.213
-506.074,-312.602
-506.700,-312.997
-507.322,-313.391
-507.944,-313.780
-508.566,-314.175
-509.193,-314.570
-509.823,-314.970
-510.445,-315.359
-511.075,-315.759
-511.697,-316.148
-512.319,-316.548
-512.941,-316.937
-513.563,-317.332
-514.185,-317.726
-514.807,-318.121
-515.430,-318.515
-516.047,-318.904
-516.665,-319.299
-517.283,-319.694
-517.901,-320.083
-518.515,-320.472
-519.133,-320.866
-519.747,-321.255
-520.361,-321.650
-520.975,-322.044
-521.597,-322.433
-522.211,-322.828
-522.825,-323.223
-523.447,-323.617
-524.060,-324.012
-524.678,-324.406
-525.296,-324.806
-525.910,-325.195
-526.528,-325.590
