'East','North','Notes: road segment ID 10073, lane 1, lane segment ID 660144129, distances from lane segment origin in meters'
0.945,-1.478
0.323,-1.867
-0.295,-2.262
-0.917,-2.662
-1.539,-3.051
-2.161,-3.446
-2.775,-3.835
-3.397,-4.235
-4.019,-4.629
-4.641,-5.018
-5.259,-5.413
-5.881,-5.808
-6.503,-6.202
-7.125,-6.591
-7.747,-6.986
-8.365,-7.380
-8.987,-7.775
-9.605,-8.164
-10.227,-8.553
-10.849,-8.953
-11.471,-9.342
-12.089,-9.737
-12.711,-10.126
-13.329,-10.520
-13.951,-10.915
-14.573,-11.304
-15.195,-11.698
-15.817,-12.093
-16.439,-12.482
-17.057,-12.877
-17.679,-13.271
-18.301,-13.666
-18.923,-14.055
-19.545,-14.444
-20.168,-14.844
-20.790,-15.233
-21.412,-15.622
-22.034,-16.017
-22.656,-16.411
-23.278,-16.800
-23.900,-17.189
-24.522,-17.589
-25.144,-17.978
-25.766,-18.367
-26.388,-18.756
-27.010,-19.157
-27.632,-19.546
-28.254,-19.935
-28.876,-20.329
-29.498,-20.724
-30.120,-21.113
-30.742,-21.502
-31.364,-21.896
-31.986,-22.285
-32.608,-22.680
-33.231,-23.075
-33.853,-23.464
-34.475,-23.853
-35.097,-24.242
-35.719,-24.642
-36.341,-25.031
-36.963,-25.420
-37.585,-25.809
-38.207,-26.203
-38.829,-26.598
-39.455,-26.987
-40.077,-27.376
-40.699,-27.765
-41.321,-28.160
-41.943,-28.554
-42.565,-28.943
-43.187,-29.332
-43.809,-29.727
-44.432,-30.121
-45.054,-30.511
-45.676,-30.900
-46.298,-31.289
-46.920,-31.683
-47.546,-32.078
-48.168,-32.467
-48.790,-32.856
-49.412,-33.245
-50.034,-33.639
-50.656,-34.034
-51.278,-34.423
-51.900,-34.812
-52.522,-35.201
-53.144,-35.596
-53.766,-35.990
-54.388,-36.379
-55.010,-36.768
-55.637,-37.163
-56.259,-37.552
-56.881,-37.941
-57.503,-38.341
-58.125,-38.730
-58.747,-39.119
-59.369,-39.514
-59.991,-39.903
-60.613,-40.292
-61.235,-40.686
-61.857,-41.081
-62.479,-41.470
-63.101,-41.859
-63.727,-42.253
-64.349,-42.648
-64.971,-43.037
-65.589,-43.432
-66.211,-43.821
-66.834,-44.215
-67.456,-44.610
-68.078,-44.999
-68.700,-45.393
-69.322,-45.782
-69.944,-46.183
-70.566,-46.572
-71.188,-46.961
-71.810,-47.355
-72.432,-47.744
-73.050,-48.139
-73.672,-48.533
-74.294,-48.922
-74.916,-49.311
-75.538,-49.712
-76.160,-50.101
-76.786,-50.490
-77.408,-50.879
-78.030,-51.273
-78.652,-51.662
-79.274,-52.051
-79.897,-52.446
-80.523,-52.840
-81.145,-53.229
-81.767,-53.618
-82.389,-54.008
-83.015,-54.402
-83.637,-54.791
-84.259,-55.180
-84.881,-55.575
-85.503,-55.969
-86.125,-56.358
-86.747,-56.747
-87.369,-57.147
-87.991,-57.536
-88.613,-57.931
-89.235,-58.326
-89.858,-58.715
-90.480,-59.115
-91.102,-59.504
-91.724,-59.893
-92.342,-60.293
-92.960,-60.682
-93.582,-61.077
-94.204,-61.471
-94.826,-61.866
-95.448,-62.260
-96.070,-62.655
-96.688,-63.044
-97.310,-63.444
-97.932,-63.833
-98.554,-64.233
-99.172,-64.622
-99.790,-65.017
-100.412,-65.411
-101.034,-65.806
-101.656,-66.206
-102.274,-66.595
-102.896,-66.990
-103.518,-67.390
-104.132,-67.779
-104.754,-68.179
-105.376,-68.574
-105.994,-68.963
-106.616,-69.363
-107.238,-69.757
-107.856,-70.152
-108.478,-70.547
-109.096,-70.941
-109.714,-71.336
-110.336,-71.725
-110.958,-72.125
-111.580,-72.514
-112.202,-72.914
-112.820,-73.303
-113.442,-73.698
-114.064,-74.092
-114.682,-74.481
-115.304,-74.876
-115.926,-75.270
-116.548,-75.659
-117.170,-76.048
-117.792,-76.449
-118.415,-76.838
-119.037,-77.227
-119.659,-77.621
-120.281,-78.016
-120.903,-78.410
-121.525,-78.799
-122.147,-79.188
-122.769,-79.583
-123.387,-79.978
-124.013,-80.367
-124.635,-80.761
-125.257,-81.150
-125.879,-81.545
-126.501,-81.939
-127.123,-82.328
-127.749,-82.723
-128.367,-83.112
-128.989,-83.507
-129.611,-83.896
-130.233,-84.290
-130.855,-84.679
-131.482,-85.079
-132.100,-85.468
-132.722,-85.857
-133.344,-86.252
-133.966,-86.641
-134.588,-87.036
-135.210,-87.425
-135.832,-87.819
-136.454,-88.208
-137.072,-88.597
-137.694,-88.997
-138.316,-89.386
-138.938,-89.775
-139.560,-90.170
-140.182,-90.559
-140.804,-90.954
-141.426,-91.348
-142.048,-91.737
-142.670,-92.126
-143.292,-92.526
-143.914,-92.915
-144.536,-93.304
-145.159,-93.699
-145.781,-94.094
-146.403,-94.483
-147.025,-94.872
-147.647,-95.272
-148.269,-95.661
-148.891,-96.050
-149.509,-96.450
-150.131,-96.839
-150.753,-97.234
-151.375,-97.628
-151.993,-98.023
-152.615,-98.417
-153.237,-98.812
-153.859,-99.201
-154.481,-99.601
-155.099,-99.990
-155.721,-100.385
-156.343,-100.779
-156.957,-101.174
-157.579,-101.574
-158.201,-101.963
-158.823,-102.358
-159.441,-102.752
-160.063,-103.147
-160.685,-103.536
-161.307,-103.936
-161.925,-104.325
-162.547,-104.719
-163.169,-105.114
-163.791,-105.503
-164.413,-105.892
-165.035,-106.292
-165.653,-106.681
-166.275,-107.070
-166.902,-107.465
-167.524,-107.854
-168.146,-108.243
-168.768,-108.637
-169.390,-109.026
-170.016,-109.415
-170.638,-109.805
-171.260,-110.199
-171.882,-110.588
-172.504,-110.977
-173.126,-111.372
-173.752,-111.761
-174.374,-112.150
-174.996,-112.539
-175.614,-112.939
-176.236,-113.328
-176.859,-113.723
-177.481,-114.112
-178.103,-114.512
-178.721,-114.901
-179.343,-115.295
-179.965,-115.690
-180.583,-116.084
-181.205,-116.479
-181.823,-116.874
-182.449,-117.268
-183.071,-117.657
-183.689,-118.057
-184.311,-118.452
-184.929,-118.841
-185.551,-119.236
-186.173,-119.630
-186.795,-120.025
-187.417,-120.414
-188.039,-120.803
-188.661,-121.197
-189.283,-121.592
-189.905,-121.981
-190.527,-122.370
-191.149,-122.759
-191.771,-123.148
-192.393,-123.543
-193.015,-123.937
-193.637,-124.326
-194.260,-124.715
-194.890,-125.104
-195.512,-125.499
-196.134,-125.888
-196.756,-126.277
-197.378,-126.666
-198.000,-127.060
-198.622,-127.449
-199.248,-127.844
-199.870,-128.233
-200.492,-128.622
-201.114,-129.017
-201.736,-129.411
-202.358,-129.800
-202.981,-130.195
-203.603,-130.584
-204.225,-130.978
-204.847,-131.373
-205.469,-131.762
-206.091,-132.157
-206.713,-132.551
-207.335,-132.946
-207.957,-133.335
-208.579,-133.729
-209.197,-134.124
-209.819,-134.513
-210.441,-134.902
-211.063,-135.302
-211.685,-135.691
-212.307,-136.080
-212.929,-136.469
-213.551,-136.864
-214.173,-137.253
-214.795,-137.642
-215.417,-138.031
-216.039,-138.431
-216.662,-138.820
-217.284,-139.209
-217.906,-139.598
-218.532,-139.993
-219.158,-140.382
-219.780,-140.771
-220.402,-141.160
-221.024,-141.549
-221.646,-141.943
-222.268,-142.338
-222.890,-142.727
-223.512,-143.116
-224.134,-143.505
-224.756,-143.894
-225.382,-144.289
-226.005,-144.678
-226.627,-145.067
-227.253,-145.461
-227.875,-145.850
-228.497,-146.239
-229.119,-146.628
-229.741,-147.017
-230.363,-147.412
-230.985,-147.801
-231.607,-148.190
-232.233,-148.585
-232.859,-148.974
-233.481,-149.363
-234.103,-149.752
-234.726,-150.141
-235.348,-150.530
-235.970,-150.930
-236.596,-151.319
-237.218,-151.708
-237.844,-152.097
-238.466,-152.486
-239.088,-152.880
-239.710,-153.270
-240.332,-153.664
-240.954,-154.053
-241.576,-154.442
-242.198,-154.837
-242.820,-155.226
-243.442,-155.615
-244.069,-156.009
-244.691,-156.398
-245.313,-156.793
-245.935,-157.182
-246.557,-157.571
-247.183,-157.966
-247.805,-158.355
-248.427,-158.749
-249.049,-159.138
-249.671,-159.527
-250.293,-159.916
-250.915,-160.311
-251.537,-160.705
-252.163,-161.094
-252.785,-161.483
-253.407,-161.872
-254.030,-162.261
-254.652,-162.662
-255.274,-163.051
-255.896,-163.440
-256.518,-163.829
-257.140,-164.218
-257.766,-164.607
-258.388,-165.001
-259.010,-165.390
-259.632,-165.785
-260.258,-166.174
-260.880,-166.563
-261.502,-166.958
-262.124,-167.347
-262.746,-167.736
-263.368,-168.125
-263.990,-168.525
-264.617,-168.914
-265.243,-169.303
-265.865,-169.692
-266.487,-170.092
-267.109,-170.481
-267.731,-170.870
-268.353,-171.259
-268.971,-171.659
-269.597,-172.048
-270.219,-172.437
-270.841,-172.837
-271.463,-173.226
-272.085,-173.615
-272.707,-174.010
-273.329,-174.405
-273.951,-174.799
-274.574,-175.188
-275.196,-175.583
-275.814,-175.977
-276.436,-176.366
-277.058,-176.766
-277.680,-177.156
-278.302,-177.550
-278.924,-177.945
-279.546,-178.334
-280.164,-178.728
-280.786,-179.123
-281.404,-179.517
-282.026,-179.912
-282.648,-180.307
-283.270,-180.701
-283.892,-181.096
-284.510,-181.490
-285.128,-181.879
-285.750,-182.274
-286.372,-182.669
-286.994,-183.063
-287.612,-183.458
-288.234,-183.852
-288.852,-184.247
-289.474,-184.636
-290.096,-185.036
-290.714,-185.425
-291.336,-185.820
-291.958,-186.220
-292.576,-186.609
-293.198,-187.009
-293.816,-187.403
-294.438,-187.798
-295.056,-188.198
-295.674,-188.587
-296.292,-188.982
-296.914,-189.382
-297.532,-189.771
-298.154,-190.171
-298.776,-190.566
-299.394,-190.955
-300.016,-191.355
-300.638,-191.744
-301.260,-192.133
-301.882,-192.522
-302.504,-192.917
-303.130,-193.306
-303.753,-193.695
-304.375,-194.089
-304.997,-194.478
-305.619,-194.873
-306.245,-195.267
-306.867,-195.656
-307.489,-196.045
-308.111,-196.434
-308.733,-196.829
-309.355,-197.218
-309.977,-197.607
-310.599,-198.002
-311.221,-198.391
-311.843,-198.780
-312.469,-199.174
-313.091,-199.563
-313.714,-199.952
-314.336,-200.341
-314.958,-200.736
-315.584,-201.125
-316.206,-201.514
-316.828,-201.908
-317.450,-202.298
-318.072,-202.687
-318.698,-203.081
-319.320,-203.470
-319.942,-203.859
-320.564,-204.248
-321.186,-204.643
-321.812,-205.032
-322.435,-205.421
-323.057,-205.815
-323.679,-206.204
-324.301,-206.593
-324.927,-206.982
-325.549,-207.377
-326.171,-207.766
-326.793,-208.161
-327.419,-208.555
-328.041,-208.944
-328.663,-209.333
-329.285,-209.728
-329.907,-210.122
-330.529,-210.511
-331.151,-210.912
-331.769,-211.301
-332.387,-211.695
-333.009,-212.090
-333.631,-212.484
-334.249,-212.879
-334.871,-213.279
-335.489,-213.668
-336.111,-214.063
-336.733,-214.463
-337.351,-214.852
-337.973,-215.252
-338.591,-215.647
-339.213,-216.036
-339.831,-216.436
-340.449,-216.825
-341.071,-217.219
-341.693,-217.614
-342.316,-218.008
-342.934,-218.398
-343.556,-218.792
-344.178,-219.187
-344.800,-219.581
-345.418,-219.970
-346.040,-220.365
-346.662,-220.759
-347.284,-221.154
-347.906,-221.543
-348.528,-221.932
-349.150,-222.332
-349.768,-222.721
-350.390,-223.116
-351.012,-223.505
-351.634,-223.905
-352.256,-224.294
-352.878,-224.689
-353.500,-225.083
-354.122,-225.478
-354.744,-225.872
-355.366,-226.267
-355.988,-226.656
-356.610,-227.050
-357.232,-227.445
-357.850,-227.840
-358.472,-228.229
-359.095,-228.623
-359.717,-229.018
-360.339,-229.407
-360.961,-229.807
-361.579,-230.196
-362.201,-230.591
-362.819,-230.985
-363.441,-231.374
-364.063,-231.769
-364.685,-232.158
-365.307,-232.552
-365.929,-232.947
-366.551,-233.336
-367.173,-233.731
-367.795,-234.125
-368.417,-234.514
-369.035,-234.909
-369.657,-235.303
-370.279,-235.692
-370.901,-236.081
-371.523,-236.482
-372.145,-236.871
-372.763,-237.260
-373.385,-237.654
-374.007,-238.049
-374.629,-238.438
-375.251,-238.832
-375.873,-239.227
-376.496,-239.616
-377.118,-240.011
-377.740,-240.400
-378.362,-240.794
-378.988,-241.189
-379.610,-241.578
-380.232,-241.967
-380.854,-242.361
-381.476,-242.750
-382.098,-243.139
-382.720,-243.540
-383.346,-243.929
-383.968,-244.318
-384.590,-244.712
-385.208,-245.101
-385.830,-245.490
-386.452,-245.885
-387.074,-246.274
-387.697,-246.663
-388.319,-247.052
-388.941,-247.446
-389.563,-247.835
-390.185,-248.230
-390.807,-248.619
-391.429,-249.014
-392.051,-249.403
-392.673,-249.797
-393.295,-250.186
-393.917,-250.581
-394.543,-250.975
-395.165,-251.364
-395.787,-251.759
-396.405,-252.148
-397.027,-252.543
-397.649,-252.937
-398.271,-253.326
-398.893,-253.721
-399.515,-254.115
-400.138,-254.510
-400.760,-254.899
-401.378,-255.288
-402.000,-255.683
-402.622,-256.077
-403.244,-256.466
-403.866,-256.861
-404.488,-257.250
-405.110,-257.639
-405.732,-258.033
-406.354,-258.422
-406.980,-258.817
-407.606,-259.206
-408.228,-259.601
-408.850,-259.990
-409.472,-260.379
-410.094,-260.773
-410.716,-261.162
-411.339,-261.557
-411.961,-261.946
-412.583,-262.335
-413.205,-262.724
-413.827,-263.118
-414.449,-263.513
-415.071,-263.902
-415.693,-264.291
-416.315,-264.686
-416.937,-265.075
-417.559,-265.469
-418.181,-265.864
-418.803,-266.253
-419.425,-266.642
-420.047,-267.042
-420.673,-267.431
-421.295,-267.820
-421.917,-268.215
-422.539,-268.604
-423.157,-269.004
-423.779,-269.393
-424.402,-269.782
-425.024,-270.176
-425.646,-270.565
-426.268,-270.966
-426.890,-271.355
-427.512,-271.744
-428.134,-272.138
-428.756,-272.527
-429.378,-272.922
-430.000,-273.311
-430.622,-273.700
-431.248,-274.089
-431.870,-274.483
-432.492,-274.873
-433.118,-275.262
-433.740,-275.651
-434.371,-276.040
-434.993,-276.429
-435.615,-276.818
-436.241,-277.207
-436.863,-277.601
-437.489,-277.985
-438.111,-278.374
-438.733,-278.763
-439.355,-279.157
-439.977,-279.546
-440.599,-279.941
-441.221,-280.330
-441.843,-280.719
-442.466,-281.119
-443.088,-281.508
-443.710,-281.903
-444.332,-282.297
-444.954,-282.692
-445.576,-283.081
-446.198,-283.475
-446.816,-283.870
-447.438,-284.265
-448.060,-284.654
-448.682,-285.054
-449.304,-285.443
-449.926,-285.837
-450.544,-286.232
-451.162,-286.627
-451.784,-287.016
-452.406,-287.416
-453.028,-287.805
-453.650,-288.194
-454.272,-288.594
-454.894,-288.983
-455.516,-289.378
-456.138,-289.778
-456.756,-290.167
-457.378,-290.567
-458.000,-290.956
-458.622,-291.350
-459.245,-291.751
-459.862,-292.140
-460.484,-292.540
-461.107,-292.929
-461.725,-293.329
-462.342,-293.718
-462.965,-294.112
-463.587,-294.507
-464.209,-294.902
-464.827,-295.291
-465.445,-295.691
-466.067,-296.080
-466.685,-296.474
-467.307,-296.863
-467.929,-297.258
-468.551,-297.653
-469.173,-298.042
-469.795,-298.436
-470.413,-298.831
-471.035,-299.220
-471.657,-299.614
-472.279,-300.003
-472.901,-300.398
-473.523,-300.793
-474.145,-301.182
-474.767,-301.571
-475.389,-301.971
-476.011,-302.360
-476.633,-302.749
-477.255,-303.149
-477.877,-303.538
-478.503,-303.927
-479.126,-304.327
-479.743,-304.716
-480.366,-305.105
-480.988,-305.505
-481.610,-305.894
-482.228,-306.289
-482.850,-306.684
-483.472,-307.073
-484.094,-307.467
-484.716,-307.856
-485.334,-308.256
-485.956,-308.645
-486.578,-309.034
-487.200,-309.434
-487.822,-309.823
-488.444,-310.218
-489.066,-310.613
-489.688,-311.002
-490.310,-311.396
-490.932,-311.785
-491.550,-312.180
-492.172,-312.574
-492.794,-312.963
-493.416,-313.358
-494.038,-313.753
-494.660,-314.142
-495.282,-314.536
-495.905,-314.925
-496.527,-315.314
-497.149,-315.714
-497.771,-316.103
-498.393,-316.498
-499.011,-316.887
-499.633,-317.282
-500.255,-317.676
-500.881,-318.065
-501.503,-318.454
-502.125,-318.849
-502.747,-319.243
-503.369,-319.632
-503.991,-320.027
-504.613,-320.416
-505.235,-320.816
-505.857,-321.205
-506.479,-321.594
-507.101,-321.994
-507.723,-322.383
-508.345,-322.778
-508.963,-323.178
-509.590,-323.567
-510.212,-323.962
-510.834,-324.351
-511.448,-324.751
-512.070,-325.140
-512.692,-325.534
-513.314,-325.929
-513.932,-326.324
-514.554,-326.718
-515.172,-327.107
-515.794,-327.507
-516.412,-327.896
-517.034,-328.285
-517.656,-328.686
-518.274,-329.075
-518.896,-329.469
-519.518,-329.858
-520.136,-330.258
-520.758,-330.647
-521.376,-331.042
-521.998,-331.431
-522.620,-331.826
