'East','North','Notes: road segment ID 10322, lane 2, lane segment ID 676462594, distances from lane segment origin in meters'
-0.839,1.623
-1.494,1.278
-2.153,0.939
-2.811,0.595
-3.466,0.250
-4.121,-0.094
-4.776,-0.439
-5.430,-0.784
-6.089,-1.128
-6.744,-1.473
-7.395,-1.823
-8.049,-2.173
-8.704,-2.518
-9.355,-2.868
-10.010,-3.218
-10.660,-3.568
-11.315,-3.924
-11.966,-4.274
-12.616,-4.624
-13.271,-4.979
-13.918,-5.335
-14.568,-5.691
-15.219,-6.047
-15.866,-6.397
-16.516,-6.758
-17.167,-7.114
-17.814,-7.469
-18.464,-7.825
-19.111,-8.186
-19.761,-8.547
-20.408,-8.909
-21.051,-9.264
-21.697,-9.631
-22.340,-9.987
-22.986,-10.348
-23.629,-10.715
-24.275,-11.070
-24.918,-11.437
-25.560,-11.804
-26.203,-12.171
-26.849,-12.538
-27.492,-12.904
-28.134,-13.271
-28.777,-13.638
-29.419,-14.010
-30.062,-14.377
-30.704,-14.750
-31.347,-15.122
-31.989,-15.494
-32.632,-15.867
-33.274,-16.239
-33.912,-16.611
-34.555,-16.989
-35.193,-17.367
-35.836,-17.739
-36.478,-18.117
-37.117,-18.495
-37.755,-18.873
-38.398,-19.251
-39.036,-19.635
-39.674,-20.012
-40.317,-20.396
-40.951,-20.779
-41.590,-21.157
-42.216,-21.535
-42.850,-21.919
-43.480,-22.297
-44.110,-22.674
-44.741,-23.052
-45.371,-23.430
-46.001,-23.814
-46.631,-24.192
-47.261,-24.570
-47.896,-24.953
-48.526,-25.337
-49.156,-25.714
-49.782,-26.092
-50.412,-26.470
-51.043,-26.854
-51.673,-27.232
-52.303,-27.615
-52.933,-27.999
-53.563,-28.376
-54.194,-28.754
-54.824,-29.138
-55.450,-29.521
-56.080,-29.899
-56.710,-30.277
-57.341,-30.666
-57.971,-31.044
-58.601,-31.422
-59.231,-31.811
-59.857,-32.189
-60.483,-32.567
-61.114,-32.956
-61.744,-33.334
-62.374,-33.717
-63.004,-34.101
-63.630,-34.484
-64.261,-34.868
-64.887,-35.251
-65.517,-35.629
-66.147,-36.018
-66.773,-36.396
-67.399,-36.785
-68.030,-37.168
-68.660,-37.552
-69.286,-37.935
-69.912,-38.319
-70.542,-38.702
-71.168,-39.091
-71.794,-39.475
-72.425,-39.858
-73.051,-40.242
-73.677,-40.631
-74.307,-41.020
-74.929,-41.403
-75.559,-41.792
-76.185,-42.176
-76.812,-42.559
-77.438,-42.948
-78.060,-43.332
-78.690,-43.721
-79.316,-44.115
-79.942,-44.504
-80.568,-44.888
-81.194,-45.277
-81.820,-45.666
-82.443,-46.055
-83.073,-46.444
-83.695,-46.833
-84.325,-47.216
-84.947,-47.605
-85.569,-47.994
-86.199,-48.383
-86.821,-48.772
-87.443,-49.161
-88.069,-49.550
-88.695,-49.939
-89.318,-50.328
-89.940,-50.717
-90.562,-51.106
-91.188,-51.496
-91.814,-51.885
-92.436,-52.274
-93.058,-52.663
-93.680,-53.057
-94.302,-53.446
-94.924,-53.835
-95.550,-54.230
-96.172,-54.619
-96.798,-55.008
-97.420,-55.397
-98.042,-55.791
-98.664,-56.180
-99.286,-56.569
-99.912,-56.959
-100.534,-57.353
-101.156,-57.742
-101.778,-58.137
-102.400,-58.526
-103.027,-58.915
-103.649,-59.309
-104.271,-59.698
-104.893,-60.087
-105.515,-60.482
-106.137,-60.877
-106.759,-61.266
-107.381,-61.655
-108.003,-62.044
-108.625,-62.444
-109.247,-62.833
-109.869,-63.222
-110.499,-63.616
-111.121,-64.005
-111.743,-64.400
-112.365,-64.789
-112.987,-65.184
-113.609,-65.573
-114.231,-65.962
-114.853,-66.362
-115.475,-66.751
-116.097,-67.140
-116.719,-67.529
-117.341,-67.929
-117.963,-68.318
-118.585,-68.707
-119.207,-69.102
-119.829,-69.496
-120.451,-69.885
-121.077,-70.280
-121.699,-70.674
-122.326,-71.063
-122.948,-71.458
-123.570,-71.847
-124.192,-72.242
-124.814,-72.636
-125.436,-73.025
-126.058,-73.420
-126.680,-73.814
-127.302,-74.203
-127.924,-74.598
-128.546,-74.993
-129.168,-75.382
-129.790,-75.782
-130.412,-76.171
-131.034,-76.565
-131.652,-76.960
-132.274,-77.349
-132.896,-77.743
-133.518,-78.138
-134.140,-78.527
-134.762,-78.922
-135.384,-79.316
-136.006,-79.705
-136.628,-80.105
-137.250,-80.494
-137.868,-80.889
-138.490,-81.284
-139.112,-81.673
-139.730,-82.067
-140.352,-82.462
-140.974,-82.851
-141.596,-83.251
-142.218,-83.640
-142.840,-84.029
-143.462,-84.429
-144.080,-84.818
-144.702,-85.218
-145.324,-85.607
-145.946,-85.996
-146.568,-86.396
-147.186,-86.785
-147.808,-87.180
-148.430,-87.575
-149.052,-87.964
-149.670,-88.364
-150.292,-88.753
-150.914,-89.147
-151.536,-89.542
-152.158,-89.937
-152.780,-90.326
-153.402,-90.720
-154.024,-91.115
-154.642,-91.509
-155.260,-91.904
-155.882,-92.293
-156.504,-92.687
-157.126,-93.082
-157.748,-93.471
-158.370,-93.871
-158.992,-94.260
-159.610,-94.649
-160.232,-95.049
-160.854,-95.438
-161.472,-95.839
-162.094,-96.228
-162.716,-96.622
-163.338,-97.017
-163.960,-97.406
-164.578,-97.800
-165.200,-98.195
-165.822,-98.590
-166.444,-98.984
-167.066,-99.373
-167.688,-99.768
-168.306,-100.162
-168.928,-100.557
-169.546,-100.946
-170.168,-101.340
-170.790,-101.735
-171.412,-102.130
-172.034,-102.524
-172.656,-102.913
-173.278,-103.308
-173.900,-103.702
-174.522,-104.091
-175.136,-104.486
-175.758,-104.881
-176.380,-105.270
-177.002,-105.670
-177.624,-106.059
-178.246,-106.453
-178.868,-106.848
-179.490,-107.237
-180.112,-107.632
-180.734,-108.026
-181.352,-108.415
-181.970,-108.810
-182.592,-109.204
-183.214,-109.593
-183.836,-109.988
-184.458,-110.382
-185.080,-110.777
-185.702,-111.166
-186.324,-111.561
-186.946,-111.955
-187.568,-112.344
-188.190,-112.739
-188.808,-113.133
-189.430,-113.522
-190.052,-113.917
-190.674,-114.312
-191.296,-114.701
-191.914,-115.090
-192.536,-115.490
-193.158,-115.879
-193.780,-116.268
-194.402,-116.662
-195.024,-117.057
-195.646,-117.452
-196.264,-117.841
-196.886,-118.230
-197.508,-118.630
-198.130,-119.019
-198.753,-119.408
-199.375,-119.802
-199.997,-120.197
-200.619,-120.586
-201.241,-120.981
-201.863,-121.370
-202.485,-121.764
-203.107,-122.159
-203.729,-122.548
-204.347,-122.937
-204.973,-123.337
-205.595,-123.726
-206.217,-124.115
-206.839,-124.510
-207.461,-124.904
-208.083,-125.293
-208.705,-125.688
-209.327,-126.077
-209.949,-126.477
-210.571,-126.866
-211.193,-127.255
-211.815,-127.650
-212.437,-128.039
-213.059,-128.433
-213.677,-128.828
-214.299,-129.217
-214.921,-129.606
-215.543,-130.006
-216.165,-130.395
-216.787,-130.784
-217.409,-131.179
-218.031,-131.573
-218.653,-131.962
-219.275,-132.357
-219.897,-132.746
-220.519,-133.135
-221.141,-133.535
-221.763,-133.924
-222.385,-134.313
-223.003,-134.708
-223.625,-135.097
-224.247,-135.491
-224.873,-135.886
-225.495,-136.275
-226.117,-136.664
-226.739,-137.064
-227.361,-137.453
-227.983,-137.842
-228.605,-138.237
-229.228,-138.626
-229.850,-139.020
-230.472,-139.415
-231.094,-139.804
-231.716,-140.193
-232.338,-140.587
-232.960,-140.982
-233.582,-141.371
-234.200,-141.766
-234.822,-142.155
-235.444,-142.549
-236.066,-142.944
-236.688,-143.333
-237.310,-143.722
-237.936,-144.116
-238.558,-144.511
-239.180,-144.900
-239.802,-145.289
-240.424,-145.684
-241.046,-146.073
-241.668,-146.467
-242.290,-146.862
-242.912,-147.251
-243.534,-147.640
-244.156,-148.034
-244.778,-148.429
-245.400,-148.818
-246.022,-149.213
-246.644,-149.602
-247.262,-149.996
-247.884,-150.391
-248.506,-150.780
-249.128,-151.169
-249.750,-151.563
-250.372,-151.958
-250.998,-152.347
-251.620,-152.742
-252.242,-153.131
-252.864,-153.525
-253.486,-153.920
-254.108,-154.309
-254.730,-154.698
-255.352,-155.087
-255.974,-155.487
-256.596,-155.876
-257.219,-156.265
-257.841,-156.660
-258.463,-157.054
-259.085,-157.443
-259.707,-157.838
-260.329,-158.227
-260.951,-158.616
-261.573,-159.016
-262.195,-159.405
-262.817,-159.794
-263.435,-160.183
-264.057,-160.583
-264.679,-160.972
-265.301,-161.361
-265.923,-161.756
-266.545,-162.150
-267.171,-162.539
-267.793,-162.934
-268.415,-163.323
-269.037,-163.718
-269.659,-164.112
-270.281,-164.501
-270.903,-164.890
-271.525,-165.285
-272.147,-165.679
-272.769,-166.068
-273.395,-166.457
-274.017,-166.852
-274.639,-167.241
-275.261,-167.630
-275.883,-168.025
-276.505,-168.414
-277.131,-168.803
-277.753,-169.197
-278.375,-169.592
-278.997,-169.981
-279.620,-170.370
-280.246,-170.753
-280.868,-171.148
-281.490,-171.537
-282.116,-171.926
-282.738,-172.320
-283.360,-172.710
-283.982,-173.099
-284.608,-173.488
-285.230,-173.882
-285.852,-174.271
-286.478,-174.660
-287.100,-175.044
-287.722,-175.438
-288.348,-175.827
-288.970,-176.216
-289.596,-176.611
-290.218,-177.000
-290.840,-177.389
-291.467,-177.772
-292.089,-178.167
-292.711,-178.556
-293.337,-178.945
-293.959,-179.334
-294.581,-179.729
-295.207,-180.118
-295.829,-180.501
-296.451,-180.890
-297.077,-181.285
-297.699,-181.674
-298.321,-182.063
-298.947,-182.452
-299.569,-182.846
-300.191,-183.235
-300.813,-183.624
-301.439,-184.008
-302.061,-184.402
-302.683,-184.791
-303.305,-185.180
-303.932,-185.569
-304.554,-185.964
-305.176,-186.353
-305.798,-186.742
-306.420,-187.131
-307.046,-187.526
-307.668,-187.920
-308.290,-188.309
-308.912,-188.698
-309.534,-189.093
-310.156,-189.482
-310.778,-189.871
-311.400,-190.260
-312.022,-190.655
-312.644,-191.049
-313.266,-191.438
-313.888,-191.827
-314.510,-192.222
-315.132,-192.616
-315.754,-193.005
-316.376,-193.394
-316.998,-193.789
-317.620,-194.178
-318.242,-194.573
-318.864,-194.967
-319.486,-195.356
-320.108,-195.745
-320.730,-196.140
-321.352,-196.534
-321.974,-196.923
-322.596,-197.318
-323.218,-197.707
-323.840,-198.102
-324.458,-198.496
-325.080,-198.885
-325.702,-199.274
-326.324,-199.669
-326.946,-200.063
-327.568,-200.458
-328.190,-200.847
-328.812,-201.236
-329.430,-201.631
-330.052,-202.025
-330.674,-202.420
-331.296,-202.809
-331.919,-203.198
-332.541,-203.592
-333.158,-203.987
-333.780,-204.382
-334.402,-204.771
-335.029,-205.165
-335.651,-205.554
-336.273,-205.949
-336.891,-206.343
-337.513,-206.738
-338.135,-207.127
-338.757,-207.521
-339.375,-207.911
-339.997,-208.311
-340.619,-208.700
-341.241,-209.094
-341.859,-209.483
-342.481,-209.878
-343.103,-210.272
-343.725,-210.667
-344.343,-211.062
-344.965,-211.451
-345.587,-211.845
-346.205,-212.240
-346.827,-212.634
-347.449,-213.029
-348.071,-213.418
-348.693,-213.813
-349.315,-214.207
-349.937,-214.596
-350.555,-214.996
