'East','North','Notes: road segment ID 10322, lane 1, lane segment ID 676462593, distances from lane segment origin in meters'
0.773,-1.506
0.119,-1.845
-0.536,-2.179
-1.195,-2.523
-1.846,-2.862
-2.496,-3.207
-3.151,-3.546
-3.806,-3.890
-4.456,-4.235
-5.111,-4.574
-5.758,-4.918
-6.413,-5.268
-7.063,-5.613
-7.710,-5.958
-8.365,-6.308
-9.011,-6.652
-9.662,-7.002
-10.308,-7.358
-10.955,-7.703
-11.606,-8.053
-12.252,-8.408
-12.899,-8.759
-13.545,-9.114
-14.192,-9.470
-14.839,-9.820
-15.485,-10.176
-16.132,-10.531
-16.774,-10.887
-17.421,-11.248
-18.067,-11.604
-18.710,-11.965
-19.352,-12.321
-19.995,-12.682
-20.637,-13.038
-21.280,-13.399
-21.918,-13.766
-22.565,-14.122
-23.203,-14.488
-23.841,-14.850
-24.484,-15.211
-25.126,-15.583
-25.765,-15.950
-26.403,-16.311
-27.042,-16.678
-27.680,-17.050
-28.318,-17.417
-28.957,-17.789
-29.595,-18.156
-30.234,-18.529
-30.868,-18.901
-31.506,-19.268
-32.145,-19.640
-32.779,-20.018
-33.413,-20.390
-34.048,-20.768
-34.686,-21.141
-35.320,-21.519
-35.950,-21.896
-36.585,-22.274
-37.219,-22.658
-37.849,-23.036
-38.484,-23.414
-39.114,-23.797
-39.748,-24.181
-40.370,-24.558
-41.000,-24.947
-41.630,-25.325
-42.261,-25.709
-42.887,-26.087
-43.517,-26.470
-44.147,-26.854
-44.773,-27.237
-45.404,-27.615
-46.030,-27.999
-46.660,-28.382
-47.290,-28.765
-47.912,-29.143
-48.542,-29.527
-49.173,-29.910
-49.799,-30.294
-50.429,-30.672
-51.055,-31.061
-51.685,-31.439
-52.315,-31.822
-52.941,-32.206
-53.568,-32.589
-54.194,-32.972
-54.824,-33.350
-55.450,-33.739
-56.080,-34.123
-56.710,-34.501
-57.337,-34.890
-57.963,-35.268
-58.589,-35.651
-59.219,-36.040
-59.845,-36.418
-60.475,-36.802
-61.101,-37.191
-61.728,-37.569
-62.354,-37.958
-62.980,-38.341
-63.610,-38.724
-64.236,-39.108
-64.862,-39.491
-65.488,-39.880
-66.119,-40.264
-66.745,-40.647
-67.367,-41.031
-67.997,-41.420
-68.623,-41.803
-69.249,-42.192
-69.875,-42.570
-70.501,-42.959
-71.132,-43.343
-71.754,-43.732
-72.380,-44.121
-73.006,-44.504
-73.632,-44.893
-74.258,-45.271
-74.884,-45.660
-75.510,-46.049
-76.132,-46.433
-76.758,-46.822
-77.389,-47.211
-78.011,-47.600
-78.637,-47.983
-79.259,-48.372
-79.889,-48.761
-80.511,-49.150
-81.137,-49.539
-81.759,-49.928
-82.385,-50.312
-83.007,-50.701
-83.633,-51.090
-84.259,-51.484
-84.882,-51.873
-85.504,-52.262
-86.130,-52.651
-86.752,-53.040
-87.374,-53.430
-88.000,-53.819
-88.622,-54.208
-89.248,-54.597
-89.870,-54.986
-90.492,-55.380
-91.114,-55.769
-91.736,-56.164
-92.362,-56.553
-92.984,-56.942
-93.606,-57.331
-94.228,-57.720
-94.854,-58.109
-95.476,-58.498
-96.098,-58.893
-96.724,-59.287
-97.347,-59.676
-97.969,-60.065
-98.591,-60.454
-99.213,-60.843
-99.835,-61.238
-100.457,-61.627
-101.083,-62.016
-101.709,-62.405
-102.331,-62.799
-102.953,-63.188
-103.575,-63.583
-104.197,-63.972
-104.819,-64.361
-105.441,-64.750
-106.063,-65.139
-106.689,-65.534
-107.311,-65.923
-107.933,-66.317
-108.559,-66.706
-109.181,-67.095
-109.803,-67.490
-110.425,-67.879
-111.047,-68.268
-111.669,-68.657
-112.296,-69.052
-112.918,-69.446
-113.540,-69.835
-114.162,-70.224
-114.784,-70.613
-115.406,-71.008
-116.028,-71.402
-116.650,-71.791
-117.272,-72.180
-117.894,-72.575
-118.516,-72.964
-119.142,-73.359
-119.764,-73.753
-120.386,-74.142
-121.008,-74.531
-121.634,-74.920
-122.256,-75.320
-122.878,-75.709
-123.500,-76.098
-124.122,-76.493
-124.744,-76.888
-125.366,-77.277
-125.988,-77.671
-126.610,-78.066
-127.232,-78.455
-127.854,-78.849
-128.472,-79.238
-129.094,-79.639
-129.712,-80.028
-130.334,-80.417
-130.956,-80.817
-131.578,-81.206
-132.200,-81.595
-132.822,-81.995
-133.444,-82.384
-134.066,-82.773
-134.688,-83.173
-135.310,-83.562
-135.932,-83.957
-136.554,-84.351
-137.176,-84.740
-137.794,-85.135
-138.416,-85.529
-139.038,-85.918
-139.660,-86.313
-140.278,-86.708
-140.900,-87.097
-141.522,-87.491
-142.144,-87.886
-142.766,-88.280
-143.388,-88.669
-144.010,-89.064
-144.632,-89.459
-145.250,-89.848
-145.872,-90.242
-146.494,-90.637
-147.116,-91.026
-147.738,-91.426
-148.361,-91.815
-148.983,-92.204
-149.605,-92.604
-150.223,-92.993
-150.845,-93.382
-151.467,-93.782
-152.089,-94.171
-152.706,-94.566
-153.329,-94.960
-153.951,-95.350
-154.573,-95.744
-155.195,-96.139
-155.817,-96.528
-156.439,-96.922
-157.061,-97.317
-157.683,-97.706
-158.305,-98.100
-158.927,-98.495
-159.545,-98.890
-160.163,-99.279
-160.785,-99.673
-161.407,-100.068
-162.029,-100.462
-162.651,-100.851
-163.273,-101.246
-163.895,-101.641
-164.517,-102.035
-165.139,-102.424
-165.761,-102.819
-166.379,-103.213
-167.001,-103.602
-167.623,-103.997
-168.245,-104.392
-168.867,-104.781
-169.485,-105.181
-170.107,-105.570
-170.729,-105.959
-171.351,-106.359
-171.973,-106.748
-172.595,-107.137
-173.213,-107.537
-173.835,-107.926
-174.457,-108.315
-175.079,-108.715
-175.701,-109.104
-176.323,-109.499
-176.945,-109.893
-177.567,-110.282
-178.189,-110.677
-178.811,-111.072
-179.433,-111.461
-180.051,-111.855
-180.669,-112.250
-181.291,-112.639
-181.913,-113.033
-182.535,-113.428
-183.157,-113.823
-183.779,-114.212
-184.401,-114.601
-185.023,-115.001
-185.645,-115.390
-186.267,-115.779
-186.885,-116.179
-187.507,-116.568
-188.129,-116.957
-188.751,-117.357
-189.373,-117.746
-189.995,-118.135
-190.617,-118.535
-191.239,-118.924
-191.861,-119.313
-192.483,-119.708
-193.105,-120.102
-193.727,-120.497
-194.345,-120.886
-194.967,-121.281
-195.589,-121.675
-196.211,-122.064
-196.829,-122.459
-197.451,-122.853
-198.073,-123.242
-198.695,-123.637
-199.317,-124.032
-199.939,-124.421
-200.561,-124.810
-201.183,-125.210
-201.805,-125.599
-202.423,-125.988
-203.045,-126.388
-203.667,-126.777
-204.289,-127.166
-204.911,-127.561
-205.533,-127.955
-206.155,-128.344
-206.777,-128.739
-207.399,-129.133
-208.021,-129.528
-208.643,-129.917
-209.266,-130.312
-209.888,-130.706
-210.510,-131.095
-211.132,-131.484
-211.750,-131.884
-212.372,-132.273
-212.994,-132.662
-213.616,-133.063
-214.238,-133.452
-214.860,-133.841
-215.482,-134.241
-216.104,-134.630
-216.726,-135.019
-217.348,-135.413
-217.970,-135.808
-218.592,-136.197
-219.210,-136.592
-219.832,-136.986
-220.454,-137.375
-221.072,-137.770
-221.694,-138.159
-222.316,-138.553
-222.938,-138.948
-223.560,-139.337
-224.182,-139.731
-224.804,-140.126
-225.426,-140.515
-226.048,-140.910
-226.670,-141.304
-227.292,-141.693
-227.914,-142.082
-228.536,-142.482
-229.158,-142.871
-229.780,-143.260
-230.402,-143.661
-231.024,-144.050
-231.646,-144.439
-232.264,-144.833
-232.886,-145.228
-233.508,-145.617
-234.130,-146.011
-234.752,-146.406
-235.374,-146.795
-235.996,-147.190
-236.618,-147.584
-237.240,-147.973
-237.862,-148.362
-238.484,-148.757
-239.106,-149.151
-239.728,-149.540
-240.350,-149.935
-240.972,-150.330
-241.594,-150.719
-242.216,-151.113
-242.838,-151.502
-243.456,-151.897
-244.078,-152.291
-244.700,-152.680
-245.318,-153.075
-245.940,-153.470
-246.562,-153.859
-247.184,-154.253
-247.806,-154.648
-248.428,-155.037
-249.050,-155.426
-249.672,-155.826
-250.294,-156.215
-250.916,-156.604
-251.538,-157.004
-252.161,-157.393
-252.783,-157.782
-253.405,-158.177
-254.027,-158.571
-254.649,-158.960
-255.271,-159.349
-255.893,-159.749
-256.515,-160.139
-257.137,-160.528
-257.759,-160.928
-258.381,-161.317
-259.003,-161.706
-259.625,-162.106
-260.247,-162.495
-260.869,-162.884
-261.487,-163.278
-262.109,-163.673
-262.727,-164.062
-263.349,-164.451
-263.971,-164.851
-264.593,-165.240
-265.215,-165.629
-265.837,-166.029
-266.459,-166.418
-267.081,-166.807
-267.703,-167.208
-268.325,-167.597
-268.947,-167.986
-269.569,-168.380
-270.191,-168.775
-270.813,-169.164
-271.439,-169.558
-272.061,-169.947
-272.683,-170.336
-273.305,-170.731
-273.927,-171.120
-274.549,-171.509
-275.171,-171.904
-275.793,-172.298
-276.415,-172.687
-277.037,-173.082
-277.659,-173.471
-278.285,-173.854
-278.907,-174.249
-279.529,-174.638
-280.156,-175.027
-280.778,-175.422
-281.400,-175.811
-282.022,-176.205
-282.648,-176.594
-283.266,-176.983
-283.888,-177.378
-284.514,-177.767
-285.136,-178.150
-285.758,-178.545
-286.384,-178.934
-287.006,-179.323
-287.632,-179.717
-288.254,-180.107
-288.876,-180.496
-289.502,-180.885
-290.124,-181.274
-290.746,-181.668
-291.368,-182.057
-291.990,-182.446
-292.612,-182.841
-293.239,-183.230
-293.861,-183.613
-294.483,-184.008
-295.109,-184.397
-295.731,-184.786
-296.353,-185.180
-296.979,-185.569
-297.601,-185.959
-298.223,-186.353
-298.845,-186.742
-299.471,-187.126
-300.093,-187.520
-300.711,-187.909
-301.333,-188.298
-301.959,-188.693
-302.581,-189.082
-303.203,-189.471
-303.825,-189.865
-304.447,-190.254
-305.073,-190.643
-305.695,-191.044
-306.317,-191.433
-306.939,-191.822
-307.561,-192.216
-308.183,-192.605
-308.805,-192.994
-309.427,-193.383
-310.049,-193.783
-310.672,-194.172
-311.294,-194.561
-311.916,-194.956
-312.538,-195.351
-313.160,-195.740
-313.782,-196.129
-314.404,-196.523
-315.026,-196.918
-315.648,-197.307
-316.270,-197.701
-316.892,-198.096
-317.514,-198.485
-318.136,-198.874
-318.758,-199.274
-319.380,-199.663
-320.002,-200.052
-320.624,-200.447
-321.246,-200.841
-321.868,-201.230
-322.486,-201.625
-323.108,-202.020
-323.730,-202.409
-324.352,-202.803
-324.974,-203.192
-325.596,-203.592
-326.218,-203.981
-326.840,-204.370
-327.458,-204.765
-328.080,-205.160
-328.702,-205.554
-329.324,-205.943
-329.946,-206.332
-330.568,-206.732
-331.186,-207.121
-331.808,-207.516
-332.430,-207.905
-333.052,-208.305
-333.674,-208.694
-334.296,-209.089
-334.914,-209.478
-335.536,-209.878
-336.158,-210.267
-336.780,-210.661
-337.398,-211.050
-338.020,-211.451
-338.642,-211.840
-339.264,-212.234
-339.882,-212.623
-340.504,-213.023
-341.126,-213.418
-341.748,-213.807
-342.366,-214.202
-342.988,-214.591
-343.610,-214.991
-344.228,-215.385
-344.850,-215.774
-345.472,-216.169
-346.090,-216.564
-346.712,-216.958
-347.334,-217.353
-347.956,-217.742
-348.574,-218.136
