'East','North','Notes: road segment ID 10519, lane 1, lane segment ID 689373185, distances from lane segment origin in meters'
-0.548,2.023
0.164,2.212
0.872,2.401
1.584,2.584
2.292,2.773
3.004,2.957
3.716,3.146
4.428,3.329
5.136,3.518
5.843,3.701
6.555,3.885
7.267,4.074
7.980,4.257
8.692,4.446
9.399,4.629
10.107,4.813
10.819,5.002
11.531,5.185
12.243,5.363
12.955,5.546
13.667,5.735
14.375,5.919
15.087,6.102
15.799,6.280
16.511,6.469
17.219,6.647
17.931,6.830
18.643,7.014
19.355,7.191
20.063,7.380
20.775,7.558
21.487,7.742
22.199,7.919
22.911,8.103
23.623,8.281
24.335,8.464
25.047,8.642
25.759,8.825
26.471,9.009
27.184,9.186
27.900,9.364
28.608,9.542
29.320,9.726
30.032,9.903
30.744,10.081
31.456,10.259
32.168,10.437
32.880,10.615
33.592,10.798
34.304,10.976
35.020,11.148
35.732,11.326
36.444,11.504
37.156,11.682
37.868,11.854
38.580,12.032
39.296,12.210
40.008,12.388
40.720,12.560
41.432,12.738
42.144,12.916
42.860,13.088
43.572,13.266
44.284,13.438
44.996,13.610
45.712,13.788
46.424,13.966
47.136,14.133
47.848,14.310
48.564,14.488
49.276,14.661
49.989,14.833
50.705,15.005
51.417,15.183
52.129,15.350
52.845,15.522
53.557,15.700
54.269,15.872
54.985,16.039
55.697,16.217
56.409,16.389
57.125,16.556
57.837,16.734
58.557,16.906
59.269,17.073
59.981,17.245
60.697,17.412
61.409,17.584
62.126,17.762
62.838,17.928
63.554,18.101
64.266,18.267
64.986,18.440
65.698,18.606
66.414,18.779
67.126,18.945
67.838,19.112
68.550,19.273
69.262,19.440
69.970,19.612
70.686,19.773
71.398,19.935
72.114,20.096
72.822,20.257
73.538,20.418
74.254,20.579
74.966,20.740
75.683,20.902
76.395,21.052
77.111,21.202
77.827,21.357
78.543,21.502
79.263,21.646
79.979,21.791
80.699,21.930
81.415,22.063
82.132,22.197
82.852,22.324
83.564,22.452
84.284,22.574
85.000,22.702
85.720,22.819
86.436,22.936
87.157,23.047
87.873,23.164
88.597,23.269
89.317,23.380
90.042,23.491
90.762,23.597
91.482,23.697
92.206,23.803
92.931,23.897
93.655,24.003
94.379,24.103
95.103,24.197
95.828,24.297
96.552,24.392
97.280,24.481
98.005,24.575
98.729,24.658
99.457,24.753
100.182,24.836
100.906,24.920
101.630,25.003
102.359,25.086
103.083,25.170
103.807,25.242
104.536,25.320
105.260,25.392
105.988,25.464
106.713,25.537
107.441,25.609
108.169,25.676
108.894,25.737
109.622,25.803
110.350,25.864
111.079,25.926
111.807,25.987
112.536,26.042
113.264,26.098
113.992,26.148
114.721,26.203
115.449,26.253
